frame_idx,t_rppg,rppg_n,t_gt_pair,ppg_n_pair,lag_samples,lag_frames
0,0.0,-0.11596910119818875,-0.033536351224864924,-0.0418772837108036,1.0,29.81839
1,0.033536351224864924,1.0912170677094917,0.0,-0.0418772837108036,1.0,29.81839
2,0.06707270244972985,2.112837427971322,0.033536351224864924,0.34648892150279814,1.0,29.81839
3,0.10060905367459477,2.78840546746772,0.06707270244972985,0.7386167170199861,1.0,29.81839
4,0.1341454048994597,3.0260431238448904,0.10060905367459477,1.102421253979719,1.0,29.81839
5,0.16768175612432462,2.841995915062083,0.1341454048994597,1.3681535107581075,1.0,29.81839
6,0.20121810734918955,2.3687284593109683,0.16768175612432462,1.4635367007836166,1.0,29.81839
7,0.23475445857405447,1.809660278203942,0.20121810734918955,1.3598720448566808,1.0,29.81839
8,0.2682908097989194,1.354442616595727,0.23475445857405447,1.094717667536623,1.0,29.81839
9,0.3018271610237843,1.0994233242006004,0.2682908097989194,0.7557864411926754,1.0,29.81839
10,0.33536351224864924,1.0161704301599195,0.3018271610237843,0.4382641526314045,1.0,29.81839
11,0.36889986347351417,0.9812244071740327,0.33536351224864924,0.20257234777793717,1.0,29.81839
12,0.4024362146983791,0.847657141141478,0.36889986347351417,0.05451994146209106,1.0,29.81839
13,0.435972565923244,0.5217986668234196,0.4024362146983791,-0.0467671049038175,1.0,29.81839
14,0.46950891714810894,0.010257371621935735,0.435972565923244,-0.16212722686589154,1.0,29.81839
15,0.5030452683729738,-0.5809153133468311,0.4695089171481089,-0.3405786004746717,1.0,29.81839
16,0.5365816195978388,-1.090594894444319,0.5030452683729738,-0.5934619088773988,1.0,29.81839
17,0.5701179708227037,-1.3701032592187077,0.5365816195978388,-0.8817106320835324,1.0,29.81839
18,0.6036543220475686,-1.348831155461524,0.5701179708227038,-1.1215744185584446,1.0,29.81839
19,0.6371906732724335,-1.0729841298607348,0.6036543220475685,-1.2113857496423772,1.0,29.81839
20,0.6707270244972985,-0.6932043334811655,0.6371906732724335,-1.074266708730976,1.0,29.81839
21,0.7042633757221634,-0.3911890275516168,0.6707270244972985,-0.7002438564421295,1.0,29.81839
22,0.7377997269470283,-0.27483230775335965,0.7042633757221635,-0.16461566267845365,1.0,29.81839
23,0.7713360781718932,-0.31036252401588776,0.7377997269470282,0.3930522185519564,1.0,29.81839
24,0.8048724293967582,-0.3493858827058017,0.7713360781718932,0.8235696689130589,1.0,29.81839
25,0.838408780621623,-0.2402039402789118,0.8048724293967582,1.02899268559507,1.0,29.81839
26,0.871945131846488,0.056689849279779,0.8384087806216232,0.9971449241865835,1.0,29.81839
27,0.9054814830713529,0.43443400993311826,0.8719451318464879,0.793472527480428,1.0,29.81839
28,0.9390178342962179,0.7085459697075912,0.9054814830713529,0.5196072517687423,1.0,29.81839
29,0.9725541855210827,0.7326515143382099,0.9390178342962179,0.2648817079691537,1.0,29.81839
30,1.0060905367459476,0.47709767763982136,0.9725541855210826,0.07554257149839286,1.0,29.81839
31,1.0396268879708126,0.025923291783254445,1.0060905367459476,-0.04887021540927502,1.0,29.81839
32,1.0731632391956776,-0.485077795437816,1.0396268879708126,-0.13901436850973103,1.0,29.81839
33,1.1066995904205426,-0.9323591877109247,1.0731632391956776,-0.23347606995612136,1.0,29.81839
34,1.1402359416454073,-1.2339608337941357,1.1066995904205423,-0.3613633223862561,1.0,29.81839
35,1.1737722928702723,-1.348123117928111,1.1402359416454073,-0.5317886485214461,1.0,29.81839
36,1.2073086440951373,-1.2649530982831565,1.1737722928702723,-0.7274319044512524,1.0,29.81839
37,1.2408449953200023,-1.0061365384627934,1.2073086440951373,-0.9020101473623088,1.0,29.81839
38,1.274381346544867,-0.6290915081256573,1.240844995320002,-0.9871175750074604,1.0,29.81839
39,1.307917697769732,-0.22207516621376952,1.274381346544867,-0.9140953024709458,1.0,29.81839
40,1.341454048994597,0.11913289687515316,1.307917697769732,-0.6474399157691172,1.0,29.81839
41,1.374990400219462,0.32878931762758024,1.341454048994597,-0.21356332799735023,1.0,29.81839
42,1.4085267514443267,0.4037156493277173,1.3749904002194617,0.2956104355401624,1.0,29.81839
43,1.4420631026691917,0.40570734982952134,1.4085267514443267,0.7531859205015592,1.0,29.81839
44,1.4755994538940567,0.42293859240861637,1.4420631026691917,1.0492036314091273,1.0,29.81839
45,1.5091358051189214,0.5102427180539187,1.4755994538940564,1.135404320629478,1.0,29.81839
46,1.5426721563437864,0.6500706061335528,1.5091358051189214,1.0377236273260046,1.0,29.81839
47,1.5762085075686514,0.7643657919569155,1.5426721563437864,0.8319510674321979,1.0,29.81839
48,1.6097448587935164,0.7699489981592283,1.5762085075686514,0.6004289084409488,1.0,29.81839
49,1.6432812100183811,0.6385945051975286,1.6097448587935161,0.3963951950339242,1.0,29.81839
50,1.676817561243246,0.4199803503506395,1.6432812100183811,0.23333432835361115,1.0,29.81839
51,1.710353912468111,0.21033447805781894,1.676817561243246,0.09805059447217702,1.0,29.81839
52,1.743890263692976,0.08739464599039067,1.710353912468111,-0.028054183671100685,1.0,29.81839
53,1.7774266149178408,0.0590791755242363,1.7438902636929758,-0.15587326310158522,1.0,29.81839
54,1.8109629661427058,0.06512692008718053,1.7774266149178408,-0.28914663426833026,1.0,29.81839
55,1.8444993173675708,0.02977059484745217,1.8109629661427058,-0.4313810510141209,1.0,29.81839
56,1.8780356685924358,-0.07626479381970554,1.8444993173675708,-0.5871846506494574,1.0,29.81839
57,1.9115720198173005,-0.21036833441445546,1.8780356685924355,-0.7525240188907829,1.0,29.81839
58,1.9451083710421655,-0.2844367469874049,1.9115720198173005,-0.9004949340392965,1.0,29.81839
59,1.9786447222670305,-0.22167247765558784,1.9451083710421655,-0.9771023444737864,1.0,29.81839
60,2.0121810734918952,-0.006180885829401477,1.9786447222670303,-0.9179809957655906,1.0,29.81839
61,2.04571742471676,0.3027090746536793,2.0121810734918952,-0.6826685939648394,1.0,29.81839
62,2.079253775941625,0.5956592480371615,2.04571742471676,-0.2874447495930912,1.0,29.81839
63,2.11279012716649,0.7615656877764981,2.079253775941625,0.1865481556842156,1.0,29.81839
64,2.146326478391355,0.73542184248708,2.4481536394151395,-0.14587026373953615,-9.0,-268.36551000000003
65,2.17986282961622,0.5262216759938317,2.4816899906400045,-0.2657908096061559,-9.0,-268.36551000000003
66,2.213399180841085,0.21213701841900157,2.5152263418648695,-0.40026801213958746,-9.0,-268.36551000000003
67,2.2469355320659496,-0.09875932273152073,2.548762693089734,-0.5480094862905773,-9.0,-268.36551000000003
68,2.2804718832908146,-0.3252026488927231,2.582299044314599,-0.69701804669325,-9.0,-268.36551000000003
69,2.3140082345156796,-0.45339729959481206,2.615835395539464,-0.8154005108914587,-9.0,-268.36551000000003
70,2.3475445857405446,-0.5324310323342681,2.649371746764329,-0.8517752261951704,-9.0,-268.36551000000003
71,2.3810809369654096,-0.625345603242133,2.3140082345156796,0.31843692665874124,2.0,59.63678
72,2.4146172881902745,-0.7526129019183588,2.3475445857405446,0.17584158776600486,2.0,59.63678
73,2.4481536394151395,-0.8737995699848402,2.749980800438924,-0.1042098357816361,-9.0,-268.36551000000003
74,2.4816899906400045,-0.9219447870088728,2.783517151663789,0.3336829321583184,-9.0,-268.36551000000003
75,2.515226341864869,-0.859532978654369,2.8170535028886534,0.7103991042210537,-9.0,-268.36551000000003
76,2.548762693089734,-0.7076285285899757,2.8505898541135184,0.9371171115126712,-9.0,-268.36551000000003
77,2.582299044314599,-0.5256639507012755,2.8841262053383834,0.9820917135161296,-9.0,-268.36551000000003
78,2.615835395539464,-0.36252781685667484,2.9176625565632484,0.8774595482404524,-9.0,-268.36551000000003
79,2.649371746764329,-0.22207338588303424,2.9511989077881133,0.6938943138843485,-9.0,-268.36551000000003
80,2.682908097989194,-0.0718040360741723,2.9847352590129783,0.5005781054302891,-9.0,-268.36551000000003
81,2.716444449214059,0.11321863817261861,3.0182716102378433,0.33488180792771943,-9.0,-268.36551000000003
82,2.749980800438924,0.3089224066656034,3.0518079614627083,0.19700165671597245,-9.0,-268.36551000000003
83,2.7835171516637884,0.44227707895423374,3.085344312687573,0.06728012309607204,-9.0,-268.36551000000003
84,2.8170535028886534,0.44312082219794197,3.118880663912438,-0.06969185967700936,-9.0,-268.36551000000003
85,2.8505898541135184,0.3159317913116649,3.1524170151373028,-0.21162908262555763,-9.0,-268.36551000000003
86,2.8841262053383834,0.17327442359448167,3.1859533663621677,-0.3432062349114024,-9.0,-268.36551000000003
87,2.9176625565632484,0.18795994900109383,3.2194897175870327,-0.4525037635986251,-9.0,-268.36551000000003
88,2.9511989077881133,0.4781563513115439,3.2530260688118977,-0.5446069163840263,-9.0,-268.36551000000003
89,2.9847352590129783,1.001279654873666,3.2865624200367627,-0.6398113261357776,-9.0,-268.36551000000003
90,3.018271610237843,1.543965321571364,3.3200987712616272,-0.7548823781658901,-9.0,-268.36551000000003
91,3.051807961462708,1.8332147659637292,3.353635122486492,-0.8789029863648018,-9.0,-268.36551000000003
92,3.085344312687573,1.699930127435397,3.387171473711357,-0.961962458197445,-9.0,-268.36551000000003
93,3.118880663912438,1.1803564472932373,3.8231440396346015,0.25494161628464473,-21.0,-626.18619
94,3.1524170151373028,0.4852948989524485,3.8566803908594665,0.11758128197586448,-21.0,-626.18619
95,3.1859533663621677,-0.13627293870379975,3.8902167420843314,-0.03243054225208563,-21.0,-626.18619
96,3.2194897175870327,-0.5414301146100565,3.9237530933091964,-0.19160823289178391,-21.0,-626.18619
97,3.2530260688118977,-0.7518159368647196,3.118880663912438,-0.06969185967700936,4.0,119.27356
98,3.2865624200367622,-0.9002802983576379,3.1524170151373028,-0.21162908262555763,4.0,119.27356
99,3.3200987712616272,-1.11653653867048,3.2194897175870323,-0.45250376359862365,3.0,89.45517000000001
100,3.353635122486492,-1.4358976959702061,3.2530260688118973,-0.544606916384025,3.0,89.45517000000001
101,3.387171473711357,-1.7865552872650723,3.2865624200367622,-0.6398113261357761,3.0,89.45517000000001
102,3.420707824936222,-2.046407732523747,3.3200987712616272,-0.7548823781658901,3.0,89.45517000000001
103,3.454244176161087,-2.1137133140033337,3.3200987712616277,-0.7548823781658918,4.0,119.27356
104,3.487780527385952,-1.9438341552448009,3.3536351224864926,-0.8789029863648029,4.0,119.27356
105,3.521316878610817,-1.5486934872483324,3.3871714737113576,-0.9619624581974445,4.0,119.27356
106,3.5548532298356816,-0.9837018787354848,3.4207078249362217,-0.9297471619182581,4.0,119.27356
107,3.5883895810605466,-0.33580242653258396,3.4542441761610867,-0.7213372142147374,4.0,119.27356
108,3.6219259322854116,0.2955576641232124,3.4877805273859517,-0.33030886687826944,4.0,119.27356
109,3.6554622835102766,0.8308060436826294,3.5213168786108167,0.17700910438957618,4.0,119.27356
110,3.6889986347351416,1.2404393159964104,3.5548532298356816,0.6809695480267712,4.0,119.27356
111,3.7225349859600065,1.5467743274054577,3.6219259322854116,1.2310979772462125,3.0,89.45517000000001
112,3.7560713371848715,1.7889064287237928,3.6554622835102766,1.1993259701910144,3.0,89.45517000000001
113,3.7896076884097365,1.9745343931664379,3.6889986347351416,1.024064107370163,3.0,89.45517000000001
114,3.823144039634601,2.058024249227982,3.722534985960006,0.7922540187077955,3.0,89.45517000000001
115,3.856680390859466,1.9668711375495838,3.756071337184871,0.5739571178421652,3.0,89.45517000000001
116,3.890216742084331,1.660885872113478,3.789607688409736,0.39813322084854524,3.0,89.45517000000001
117,3.923753093309196,1.1805838845446668,4.192043903108115,-1.017097170935241,-8.0,-238.54712
118,3.957289444534061,0.6469339304276346,4.22558025433298,-1.0095621379282103,-8.0,-238.54712
119,3.990825795758926,0.2090589601025417,4.259116605557845,-0.8178649262611676,-8.0,-238.54712
120,4.0243621469837905,-0.029399395362382466,4.29265295678271,-0.4308722342745375,-8.0,-238.54712
121,4.0578984982086554,-0.06377392105518351,3.9237530933091955,-0.19160823289177986,4.0,119.27356
122,4.09143484943352,0.0075852634851999185,3.9572894445340605,-0.3386572806894072,4.0,119.27356
123,4.124971200658385,0.03261296519223127,3.9908257957589255,-0.4517080588102765,4.0,119.27356
124,4.15850755188325,-0.11678342447649678,4.0243621469837905,-0.5266176563660181,4.0,119.27356
125,4.192043903108115,-0.4800383467503199,4.0578984982086554,-0.5838112461689221,4.0,119.27356
126,4.22558025433298,-0.9893941301953324,4.09143484943352,-0.657361400290598,4.0,119.27356
127,4.259116605557845,-1.5039258246786988,4.124971200658385,-0.7702639208292198,4.0,119.27356
128,4.29265295678271,-1.874628604804544,4.15850755188325,-0.9094068655459613,4.0,119.27356
129,4.326189308007575,-2.0052521829828827,4.192043903108115,-1.017097170935241,4.0,119.27356
130,4.35972565923244,-1.8812060367059629,4.22558025433298,-1.0095621379282103,4.0,119.27356
131,4.393262010457305,-1.5610260162845537,4.259116605557845,-0.8178649262611676,4.0,119.27356
132,4.42679836168217,-1.1432315298472662,4.29265295678271,-0.4308722342745375,4.0,119.27356
133,4.460334712907035,-0.7255239235498595,4.326189308007575,0.08566549947099093,4.0,119.27356
134,4.493871064131899,-0.36992215351596797,4.359725659232439,0.6087264721424354,4.0,119.27356
135,4.527407415356764,-0.08584466448960418,4.393262010457304,1.00848572964553,4.0,119.27356
136,4.560943766581629,0.15985410135194927,4.426798361682169,1.2026701461169012,4.0,119.27356
137,4.594480117806494,0.40961962662025575,4.460334712907034,1.1856937218023569,4.0,119.27356
138,4.628016469031359,0.6799565731036828,4.493871064131899,1.0193620346615868,4.0,119.27356
139,4.661552820256224,0.949414436778307,4.527407415356764,0.7942783644135267,4.0,119.27356
140,4.695089171481089,1.1768229358664295,4.560943766581629,0.5855136969507334,4.0,119.27356
141,4.728625522705954,1.3312888812844468,4.594480117806494,0.42549831309416236,4.0,119.27356
142,4.762161873930819,1.4058518919897858,4.628016469031359,0.3043502468432978,4.0,119.27356
143,4.795698225155684,1.4026677704697728,4.661552820256224,0.19178982033839842,4.0,119.27356
144,4.829234576380549,1.3061764260982334,4.695089171481089,0.06432167492228859,4.0,119.27356
145,4.862770927605414,1.0751783351651425,4.728625522705954,-0.078828442296565,4.0,119.27356
146,4.896307278830279,0.6699525386361085,4.762161873930819,-0.21867747282349853,4.0,119.27356
147,4.929843630055144,0.09914135163464101,4.795698225155684,-0.3338748768020338,4.0,119.27356
148,4.963379981280009,-0.5502757768847338,4.829234576380549,-0.41952798830536947,4.0,119.27356
149,4.996916332504873,-1.1299296997422326,4.862770927605413,-0.4939195207775604,4.0,119.27356
150,5.030452683729738,-1.4910582172399949,4.896307278830278,-0.5869409110177513,4.0,119.27356
151,5.063989034954603,-1.5521402075517963,4.929843630055143,-0.7153959265436214,4.0,119.27356
152,5.097525386179468,-1.3302105872849004,4.963379981280008,-0.8597641540356469,4.0,119.27356
153,5.131061737404333,-0.9208977745034663,4.996916332504873,-0.9591140945138221,4.0,119.27356
154,5.164598088629198,-0.4467388181366703,5.030452683729738,-0.9329299810716463,4.0,119.27356
155,5.198134439854063,-0.006943069496835026,5.063989034954603,-0.7230033049580452,4.0,119.27356
156,5.231670791078928,0.34873013456920454,5.097525386179468,-0.33349796733011294,4.0,119.27356
157,5.265207142303793,0.6185840773241555,5.131061737404333,0.1563442953063898,4.0,119.27356
158,5.298743493528658,0.8290634559589567,5.164598088629198,0.6190662469513344,4.0,119.27356
159,5.332279844753523,1.0071945366919577,5.198134439854063,0.9337329751654201,4.0,119.27356
160,5.365816195978388,1.1550935541598943,5.231670791078928,1.0384611590838895,4.0,119.27356
161,5.399352547203253,1.2371700056507153,5.265207142303793,0.9514898587047178,4.0,119.27356
162,5.432888898428118,1.1888183592779291,5.298743493528658,0.7513139673031889,4.0,119.27356
163,5.466425249652983,0.9459850746995119,5.332279844753523,0.5309365362531361,4.0,119.27356
164,5.499961600877848,0.48389676071778026,5.365816195978388,0.35416028078143297,4.0,119.27356
165,5.533497952102712,-0.15202042026692755,5.399352547203252,0.23634786809171843,4.0,119.27356
166,5.567034303327577,-0.8398146585463838,5.432888898428117,0.15426548537707507,4.0,119.27356
167,5.600570654552442,-1.4103924998237942,5.466425249652982,0.0722442190651633,4.0,119.27356
168,5.634107005777307,-1.708780826962934,5.499961600877847,-0.03451397240784032,4.0,119.27356
169,5.667643357002172,-1.663630571318293,5.902397815576227,0.8763128167175577,-7.0,-208.72873
170,5.701179708227037,-1.3300832046207924,5.935934166801092,0.9445953287547358,-7.0,-208.72873
171,5.734716059451902,-0.87681135548968,6.3383703814994705,-0.6663631638345366,-18.0,-536.7310200000001
172,5.768252410676767,-0.5108122981829294,6.3383703814994705,-0.6663631638345366,-17.0,-506.91263000000004
173,5.801788761901632,-0.36925993724485373,6.3719067327243355,-0.8039355945503658,-17.0,-506.91263000000004
174,5.835325113126497,-0.43896981087414166,6.4054430839492005,-0.8872614060634435,-17.0,-506.91263000000004
175,5.868861464351362,-0.5594955311551577,6.4389794351740655,-0.8561128573358044,-17.0,-506.91263000000004
176,5.902397815576227,-0.5150733862729696,5.768252410676767,-0.5625904948255378,4.0,119.27356
177,5.935934166801092,-0.16018359275424285,5.801788761901632,-0.19785768295920406,4.0,119.27356
178,5.969470518025957,0.496131816646246,5.835325113126497,0.23310736515472938,4.0,119.27356
179,6.003006869250822,1.289555525403454,6.2042249766000115,-0.16367600883670727,-6.0,-178.91034000000002
180,6.036543220475686,1.9735286843340893,6.237761327824876,-0.2674860026468546,-6.0,-178.91034000000002
181,6.070079571700551,2.322518194746553,6.271297679049741,-0.3857225450220426,-6.0,-178.91034000000002
182,6.103615922925416,2.22006389962687,6.3383703814994705,-0.6663631638345366,-7.0,-208.72873
183,6.137152274150281,1.7028594836271944,6.3719067327243355,-0.8039355945503658,-7.0,-208.72873
184,6.170688625375146,0.9486687452498432,6.4054430839492005,-0.8872614060634435,-7.0,-208.72873
185,6.204224976600011,0.20819834822511693,6.807879298647579,0.227308400974859,-18.0,-536.7310200000001
186,6.237761327824876,-0.30077993834161787,6.841415649872444,0.11622314056974942,-18.0,-536.7310200000001
187,6.271297679049741,-0.4928238364338598,6.874952001097309,0.02635134212428974,-18.0,-536.7310200000001
188,6.3048340302746055,-0.4512030419636038,6.908488352322174,-0.060552258719939904,-18.0,-536.7310200000001
189,6.3383703814994705,-0.3712634546919131,6.908488352322174,-0.060552258719939904,-17.0,-506.91263000000004
190,6.3719067327243355,-0.43920971044071794,6.942024703547039,-0.1548400999799954,-17.0,-506.91263000000004
191,6.4054430839492005,-0.7214674844778375,6.975561054771904,-0.26289328450368066,-17.0,-506.91263000000004
192,6.4389794351740655,-1.1336871767755359,6.3383703814994705,-0.6663631638345366,3.0,89.45517000000001
193,6.47251578639893,-1.5028129399360877,6.707270244972985,0.8001697804687162,-7.0,-208.72873
194,6.506052137623795,-1.6742919038933255,6.74080659619785,0.5798468294244035,-7.0,-208.72873
195,6.53958848884866,-1.5922206153616367,6.774342947422715,0.37994207547901865,-7.0,-208.72873
196,6.5731248400735245,-1.3057548961069245,6.807879298647579,0.227308400974859,-7.0,-208.72873
197,6.6066611912983895,-0.9114483130599255,6.5060521376237945,-0.31056289497183426,3.0,89.45517000000001
198,6.6401975425232544,-0.48656325889504876,6.5395884888486595,0.140705550831479,3.0,89.45517000000001
199,6.673733893748119,-0.06554266851359747,6.5731248400735245,0.5810382560157433,3.0,89.45517000000001
200,6.707270244972984,0.3346674578703232,6.942024703547039,-0.1548400999799954,-7.0,-208.72873
201,6.740806596197849,0.6797579327018962,6.975561054771904,-0.26289328450368066,-7.0,-208.72873
202,6.774342947422714,0.9166058788731738,7.009097405996769,-0.391577314908835,-7.0,-208.72873
203,6.807879298647579,1.0109771163886285,7.042633757221634,-0.5444126695964707,-7.0,-208.72873
204,6.841415649872444,0.9878696696764652,7.076170108446499,-0.7091134917682086,-7.0,-208.72873
205,6.874952001097309,0.9306664859375754,7.109706459671364,-0.8464849209333153,-7.0,-208.72873
206,6.908488352322174,0.9307159791320156,7.143242810896229,-0.8943279615240138,-7.0,-208.72873
207,6.942024703547039,1.022561283400283,7.176779162121094,-0.7922095782049335,-7.0,-208.72873
208,6.975561054771904,1.1510269226944128,7.210315513345959,-0.5174028337034465,-7.0,-208.72873
209,7.009097405996769,1.1910488466395999,7.243851864570824,-0.11011978798013992,-7.0,-208.72873
210,7.042633757221634,1.008181552051586,7.277388215795689,0.3317366765651028,-7.0,-208.72873
211,7.076170108446499,0.5306697878276111,7.310924567020554,0.6904282365782961,-7.0,-208.72873
212,7.109706459671363,-0.1969264812970935,7.377997269470283,0.8777805573125096,-8.0,-238.54712
213,7.143242810896228,-1.0035068119337405,7.411533620695147,0.7317983833236902,-8.0,-238.54712
214,7.176779162121093,-1.6397803706233791,7.780433484168662,-0.7264382598506269,-18.0,-536.7310200000001
215,7.210315513345958,-1.8771294353883639,7.813969835393527,-0.75387238325068,-18.0,-536.7310200000001
216,7.243851864570823,-1.6152470570253459,7.847506186618392,-0.6396874046395228,-18.0,-536.7310200000001
217,7.277388215795688,-0.9395151380847665,7.512142674369743,0.18293118517570295,-7.0,-208.72873
218,7.310924567020553,-0.09114043073117578,7.545679025594608,0.09294011110643764,-7.0,-208.72873
219,7.344460918245418,0.637851751214778,7.579215376819473,0.03029358880554091,-7.0,-208.72873
220,7.377997269470283,1.0312646082326764,7.612751728044338,-0.037450499165646495,-7.0,-208.72873
221,7.411533620695148,1.0336347625405284,7.646288079269203,-0.13431248518704153,-7.0,-208.72873
222,7.445069971920013,0.7540129016817668,7.679824430494068,-0.26926676654245907,-7.0,-208.72873
223,7.478606323144878,0.3925134522753128,7.713360781718933,-0.4340441953039594,-7.0,-208.72873
224,7.512142674369743,0.13129541545322418,7.746897132943798,-0.6015467291034193,-7.0,-208.72873
225,7.545679025594608,0.04482245390227865,7.780433484168663,-0.7264382598506277,-7.0,-208.72873
226,7.579215376819473,0.07148813082080217,7.813969835393528,-0.753872383250677,-7.0,-208.72873
227,7.612751728044337,0.05928177716190892,7.813969835393527,-0.75387238325068,-6.0,-178.91034000000002
228,7.646288079269202,-0.13678031070921473,7.847506186618392,-0.6396874046395228,-6.0,-178.91034000000002
229,7.679824430494067,-0.5553995687408128,7.881042537843257,-0.3759240981960268,-6.0,-178.91034000000002
230,7.713360781718932,-1.085136400410011,7.914578889068122,-0.006732780142286476,-6.0,-178.91034000000002
231,7.746897132943797,-1.5099321264802463,7.948115240292987,0.37927505839832326,-6.0,-178.91034000000002
232,7.780433484168662,-1.6260098684522881,7.981651591517852,0.6813067180275298,-6.0,-178.91034000000002
233,7.813969835393527,-1.360557570898926,8.015187942742717,0.8279002927760138,-6.0,-178.91034000000002
234,7.847506186618392,-0.8153694713197459,8.048724293967581,0.804829493868085,-6.0,-178.91034000000002
235,7.881042537843257,-0.20791081037577058,8.082260645192447,0.6544350075720113,-6.0,-178.91034000000002
236,7.914578889068122,0.2500302676664406,8.115796996417311,0.4489714938753051,-6.0,-178.91034000000002
237,7.948115240292987,0.46012640785634273,8.149333347642177,0.2551312704645341,-6.0,-178.91034000000002
238,7.981651591517852,0.4718587428934394,8.18286969886704,0.1091374808082066,-6.0,-178.91034000000002
239,8.015187942742717,0.4336680671425409,8.216406050091907,0.012090488452142417,-6.0,-178.91034000000002
240,8.048724293967581,0.49834886251086563,8.24994240131677,-0.058087890696701755,-6.0,-178.91034000000002
241,8.082260645192447,0.7375820512929764,8.283478752541637,-0.12957548656516457,-6.0,-178.91034000000002
242,8.115796996417311,1.1077676453402283,8.3170151037665,-0.22438591055118992,-6.0,-178.91034000000002
243,8.149333347642177,1.4796620898437198,8.350551454991367,-0.35327777618102085,-6.0,-178.91034000000002
244,8.18286969886704,1.710118426134071,8.38408780621623,-0.5136107285994373,-6.0,-178.91034000000002
245,8.216406050091907,1.7117636297665249,8.417624157441097,-0.6857535006166111,-6.0,-178.91034000000002
246,8.24994240131677,1.4825773814227086,8.45116050866596,-0.8295095066768081,-6.0,-178.91034000000002
247,8.283478752541637,1.0876005928704209,8.484696859890827,-0.8879213527378317,-6.0,-178.91034000000002
248,8.3170151037665,0.6130008266135742,8.51823321111569,-0.8048457831051192,-6.0,-178.91034000000002
249,8.350551454991367,0.12126273991494628,8.551769562340557,-0.5532016896649051,-6.0,-178.91034000000002
250,8.38408780621623,-0.3688638581645267,8.58530591356542,-0.15920943747391178,-6.0,-178.91034000000002
251,8.417624157441095,-0.8658593839221163,8.618842264790285,0.2952693831288011,-6.0,-178.91034000000002
252,8.45116050866596,-1.3612600894070597,8.65237861601515,0.6995055650896344,-6.0,-178.91034000000002
253,8.484696859890825,-1.7896010770869555,8.685914967240015,0.9583186717532225,-6.0,-178.91034000000002
254,8.51823321111569,-2.029446699641996,8.71945131846488,1.0299092501412253,-6.0,-178.91034000000002
255,8.551769562340555,-1.9585001637757278,8.752987669689745,0.9363838725014726,-6.0,-178.91034000000002
256,8.58530591356542,-1.5354145343932468,8.78652402091461,0.7435890433839168,-6.0,-178.91034000000002
257,8.618842264790285,-0.8536044773059523,8.820060372139475,0.525103261664089,-6.0,-178.91034000000002
258,8.65237861601515,-0.12288897971653505,8.85359672336434,0.33192741971380935,-6.0,-178.91034000000002
259,8.685914967240015,0.4192258016767679,8.887133074589205,0.1817722856098114,-6.0,-178.91034000000002
260,8.71945131846488,0.6171434336931829,8.92066942581407,0.0672220842139437,-6.0,-178.91034000000002
261,8.752987669689745,0.4659989623114038,8.954205777038934,-0.02872471622725739,-6.0,-178.91034000000002
262,8.78652402091461,0.10622737951885547,8.9877421282638,-0.12178134210558111,-6.0,-178.91034000000002
263,8.820060372139475,-0.24765206518054397,9.021278479488664,-0.22422325964181816,-6.0,-178.91034000000002
264,8.85359672336434,-0.40553564474863796,9.05481483071353,-0.34645559163843664,-6.0,-178.91034000000002
265,8.887133074589205,-0.2798752725940578,9.088351181938394,-0.49438253769772045,-6.0,-178.91034000000002
266,8.92066942581407,0.09095997526555767,9.12188753316326,-0.6598695637993387,-6.0,-178.91034000000002
267,8.954205777038934,0.5774230977745488,9.155423884388124,-0.8105408059994159,-6.0,-178.91034000000002
268,8.987742128263799,1.0237995034266567,9.188960235612988,-0.8903324875457326,-6.0,-178.91034000000002
269,9.021278479488664,1.3060332875071186,9.222496586837854,-0.8381948695385146,-6.0,-178.91034000000002
270,9.054814830713529,1.3604743771267886,9.256032938062718,-0.620105598729521,-6.0,-178.91034000000002
271,9.088351181938394,1.1843928131362191,9.289569289287584,-0.25708079501531705,-6.0,-178.91034000000002
272,9.121887533163259,0.8206516602844623,9.323105640512448,0.17063394944217383,-6.0,-178.91034000000002
273,9.155423884388124,0.33832516962004955,9.356641991737314,0.5510257700729109,-6.0,-178.91034000000002
274,9.188960235612988,-0.18285729526396133,9.390178342962178,0.7873186225910895,-6.0,-178.91034000000002
275,9.222496586837854,-0.6605444777006949,9.423714694187044,0.8387059568576192,-6.0,-178.91034000000002
276,9.256032938062718,-1.0134339361135516,9.457251045411908,0.7322582122481435,-6.0,-178.91034000000002
277,9.289569289287584,-1.1706175563989438,9.490787396636774,0.5414584371530404,-6.0,-178.91034000000002
278,9.323105640512448,-1.0942015774643459,9.524323747861638,0.34639422856118834,-6.0,-178.91034000000002
279,9.356641991737314,-0.8070304021557868,9.557860099086504,0.19881179120562542,-6.0,-178.91034000000002
280,9.390178342962178,-0.401024464698562,9.591396450311368,0.10860454104174817,-6.0,-178.91034000000002
281,9.423714694187044,-0.006085218566398367,9.624932801536234,0.05339665827885967,-6.0,-178.91034000000002
282,9.457251045411908,0.27086249620720976,9.658469152761098,3.1890521491488936e-05,-6.0,-178.91034000000002
283,9.490787396636772,0.3972271449465246,9.692005503985962,-0.07668167439948613,-6.0,-178.91034000000002
284,9.524323747861638,0.41847953154081513,9.725541855210828,-0.18630580693339954,-6.0,-178.91034000000002
285,9.557860099086502,0.412041499535967,9.759078206435692,-0.3244787487206042,-6.0,-178.91034000000002
286,9.591396450311368,0.4278159419826669,9.792614557660558,-0.4764090282723334,-6.0,-178.91034000000002
287,9.624932801536232,0.4585412903862038,9.826150908885422,-0.6167764474170313,-6.0,-178.91034000000002
288,9.658469152761098,0.4543680171096802,9.859687260110288,-0.7080877146960635,-6.0,-178.91034000000002
289,9.692005503985962,0.36205902570141424,9.893223611335152,-0.7049617744362685,-6.0,-178.91034000000002
290,9.725541855210828,0.15988949655237966,9.926759962560018,-0.5695340125906458,-6.0,-178.91034000000002
291,9.759078206435692,-0.12745746416215217,9.960296313784882,-0.29389431741044864,-6.0,-178.91034000000002
292,9.792614557660558,-0.4358298860646315,9.993832665009748,0.08357059174162144,-6.0,-178.91034000000002
293,9.826150908885422,-0.6854034137902073,9.658469152761098,3.1890521491488936e-05,5.0,149.09195
294,9.859687260110288,-0.8100236722209799,9.692005503985964,-0.07668167439949193,5.0,149.09195
295,9.893223611335152,-0.7778104569137178,10.094441718684342,0.9710758311041504,-6.0,-178.91034000000002
296,9.926759962560018,-0.5971461880857833,10.127978069909208,0.9635887127255663,-6.0,-178.91034000000002
297,9.960296313784882,-0.31405468516534146,10.161514421134072,0.8135620769433409,-6.0,-178.91034000000002
298,9.993832665009746,-0.006643102805660032,10.195050772358936,0.5895303190193103,-6.0,-178.91034000000002
299,10.027369016234612,0.2292684957145194,10.228587123583802,0.3607576958449572,-6.0,-178.91034000000002
300,10.060905367459476,0.31313464693109494,10.262123474808666,0.1699112844761217,-6.0,-178.91034000000002
301,10.094441718684342,0.22460347283478277,10.295659826033532,0.024101907350809675,-6.0,-178.91034000000002
302,10.127978069909206,0.030105861724336186,10.329196177258396,-0.09794314370776258,-6.0,-178.91034000000002
303,10.161514421134072,-0.14008536119442022,10.362732528483262,-0.2319530760297401,-6.0,-178.91034000000002
304,10.195050772358936,-0.16194985887669455,10.396268879708126,-0.4136782055801685,-6.0,-178.91034000000002
305,10.228587123583802,0.009570734220313917,10.429805230932992,-0.6634309653332753,-6.0,-178.91034000000002
306,10.262123474808666,0.3180893518755926,10.42980523093299,-0.6634309653332621,-5.0,-149.09195
307,10.295659826033532,0.6471992442154568,10.463341582157856,-0.9681551871928428,-5.0,-149.09195
308,10.329196177258396,0.888358617328314,10.49687793338272,-1.2669467700032848,-5.0,-149.09195
309,10.362732528483262,0.9837868372012928,10.530414284607586,-1.4540516896454068,-5.0,-149.09195
310,10.396268879708126,0.9250134017539035,10.56395063583245,-1.4110049096758683,-5.0,-149.09195
311,10.429805230932992,0.7284785081112966,10.597486987057316,-1.0627389162766543,-5.0,-149.09195
312,10.463341582157856,0.4201779670622534,10.63102333828218,-0.43071779008677197,-5.0,-149.09195
313,10.496877933382722,0.03956891488033402,10.664559689507046,0.35234129250173646,-5.0,-149.09195
314,10.530414284607586,-0.3529643474836748,10.69809604073191,1.084711022496321,-5.0,-149.09195
315,10.56395063583245,-0.6849940712459026,10.731632391956774,1.5785292839294238,-5.0,-149.09195
316,10.597486987057316,-0.8985332598071271,10.76516874318164,1.738633079429171,-5.0,-149.09195
317,10.63102333828218,-0.9741227201978803,10.798705094406504,1.5932143915715613,-5.0,-149.09195
318,10.664559689507046,-0.9309113337404743,10.83224144563137,1.262280110403809,-5.0,-149.09195
319,10.69809604073191,-0.8023739471177137,10.865777796856234,0.8876948451704479,-5.0,-149.09195
320,10.731632391956776,-0.6101607618266828,10.563950635832452,-1.41100490967585,5.0,149.09195
321,10.76516874318164,-0.3592639587738564,10.597486987057316,-1.0627389162766543,5.0,149.09195
322,10.798705094406506,-0.05692729758305962,10.631023338282182,-0.4307177900867305,5.0,149.09195
323,10.83224144563137,0.2638493283583358,10.664559689507046,0.35234129250173646,5.0,149.09195
324,10.865777796856236,0.5409442545338715,11.03345955298056,-0.22189657515568065,-5.0,-149.09195
325,10.8993141480811,0.7097999456609718,11.066995904205424,-0.453195432408457,-5.0,-149.09195
326,10.932850499305966,0.7427736737500688,11.10053225543029,-0.7211030701344475,-5.0,-149.09195
327,10.96638685053083,0.6673656290612385,11.16760495788002,-1.3524676270315212,-6.0,-178.91034000000002
328,10.999923201755696,0.544866812734602,11.201141309104885,-1.6583259546884457,-6.0,-178.91034000000002
329,11.03345955298056,0.4256640562229579,10.8993141480811,0.567864005821338,4.0,119.27356
330,11.066995904205424,0.31623320130514443,10.932850499305964,0.3303811786702755,4.0,119.27356
331,11.10053225543029,0.18107557695384888,10.96638685053083,0.1476483583995369,4.0,119.27356
332,11.134068606655154,-0.023308422143772694,10.999923201755694,-0.02562983722507084,4.0,119.27356
333,11.16760495788002,-0.30637189041866775,11.03345955298056,-0.22189657515568065,4.0,119.27356
334,11.201141309104884,-0.6239380737628362,11.066995904205424,-0.453195432408457,4.0,119.27356
335,11.23467766032975,-0.8977304196620615,11.10053225543029,-0.7211030701344475,4.0,119.27356
336,11.268214011554614,-1.060661214610484,11.134068606655154,-1.0248539748115217,4.0,119.27356
337,11.30175036277948,-1.0934051465099273,11.50296847012867,1.9599995466900242,-6.0,-178.91034000000002
338,11.335286714004344,-1.0272769867621043,11.536504821353534,1.624893094514952,-6.0,-178.91034000000002
339,11.36882306522921,-0.9164604781789036,11.5700411725784,1.2052394812658989,-6.0,-178.91034000000002
340,11.402359416454074,-0.8012290164218678,11.603577523803263,0.8291298490585032,-6.0,-178.91034000000002
341,11.43589576767894,-0.684354798987139,11.63711387502813,0.5462573491765689,-6.0,-178.91034000000002
342,11.469432118903804,-0.5323295979906266,11.335286714004344,-0.7161982282735707,4.0,119.27356
343,11.50296847012867,-0.2979146295480216,11.36882306522921,0.19926126703513805,4.0,119.27356
344,11.536504821353534,0.04986662046622314,11.402359416454074,1.1002899052499655,4.0,119.27356
345,11.570041172578398,0.501533384605294,11.435895767678938,1.7609322571202002,4.0,119.27356
346,11.603577523803263,0.9973996020692397,11.469432118903804,2.0459616728261465,4.0,119.27356
347,11.637113875028128,1.4388491649528565,11.838331982377317,-0.7692345454252935,-6.0,-178.91034000000002
348,11.670650226252993,1.7214005600364886,11.871868333602183,-1.0593443637058262,-6.0,-178.91034000000002
349,11.704186577477858,1.7774092308685556,11.905404684827047,-1.3719007650231958,-6.0,-178.91034000000002
350,11.737722928702723,1.6066872635399503,11.938941036051913,-1.6565628983729164,-6.0,-178.91034000000002
351,11.771259279927587,1.2777449003222743,11.972477387276777,-1.8096599212225337,-6.0,-178.91034000000002
352,11.804795631152453,0.8979922539864176,12.006013738501643,-1.7063639364815988,-6.0,-178.91034000000002
353,11.838331982377317,0.5669580021548104,12.039550089726507,-1.267175800664741,-6.0,-178.91034000000002
354,11.871868333602183,0.33479468475549173,12.073086440951373,-0.5220239755112237,-6.0,-178.91034000000002
355,11.905404684827047,0.18634641300159327,12.106622792176237,0.37311979624348907,-6.0,-178.91034000000002
356,11.938941036051913,0.0584788313097059,12.140159143401103,1.1880619291434178,-6.0,-178.91034000000002
357,11.972477387276777,-0.11897954032790997,12.173695494625967,1.715931898636659,-6.0,-178.91034000000002
358,12.006013738501643,-0.3799615498027715,12.207231845850833,1.8616719112094622,-6.0,-178.91034000000002
359,12.039550089726507,-0.6983725000808209,12.609668060549211,-1.3939403577969938,-17.0,-506.91263000000004
360,12.073086440951371,-0.9963459656503766,12.643204411774075,-1.59902191173156,-17.0,-506.91263000000004
361,12.106622792176237,-1.1809648386322764,12.676740762998941,-1.5995918369827955,-17.0,-506.91263000000004
362,12.140159143401101,-1.1896143974764648,12.710277114223805,-1.301688095192871,-17.0,-506.91263000000004
363,12.173695494625967,-1.0188853088249183,12.039550089726507,-1.267175800664741,4.0,119.27356
364,12.207231845850831,-0.7228880993880383,12.073086440951371,-0.5220239755112711,4.0,119.27356
365,12.240768197075697,-0.3859111035621326,12.106622792176237,0.37311979624348907,4.0,119.27356
366,12.274304548300561,-0.08730949280090858,12.441986304424885,-0.04879546716848285,-5.0,-149.09195
367,12.307840899525427,0.12394092482119956,12.475522655649751,-0.24693220525554205,-5.0,-149.09195
368,12.341377250750291,0.2367424131576787,12.509059006874615,-0.4904656272966458,-5.0,-149.09195
369,12.374913601975157,0.2683329800444178,12.274304548300563,1.2889618036898085,3.0,89.45517000000001
370,12.408449953200021,0.24471282033463368,12.274304548300561,1.2889618036898305,4.0,119.27356
371,12.441986304424887,0.18150742955488755,12.307840899525427,0.8758908649697444,4.0,119.27356
372,12.475522655649751,0.07502532530681852,12.341377250750291,0.5373177042023374,4.0,119.27356
373,12.509059006874617,-0.0922551514398577,12.374913601975157,0.29721365017024737,4.0,119.27356
374,12.542595358099481,-0.33477700053734244,12.408449953200021,0.11965711696860112,4.0,119.27356
375,12.576131709324347,-0.644368481656657,12.441986304424887,-0.048795467168491785,4.0,119.27356
376,12.609668060549211,-0.9790095500330961,12.475522655649751,-0.24693220525554205,4.0,119.27356
377,12.643204411774075,-1.2670227327628965,12.509059006874615,-0.4904656272966458,4.0,119.27356
378,12.676740762998941,-1.4253117604018117,12.542595358099481,-0.7781152913898548,4.0,119.27356
379,12.710277114223805,-1.383531848872092,12.576131709324345,-1.0934391254900682,4.0,119.27356
380,12.743813465448671,-1.1059341350427845,12.609668060549211,-1.3939403577969938,4.0,119.27356
381,12.777349816673535,-0.6061460270021342,12.643204411774075,-1.59902191173156,4.0,119.27356
382,12.810886167898401,0.04814250367392873,12.676740762998941,-1.5995918369827955,4.0,119.27356
383,12.844422519123265,0.7441580589298071,12.710277114223805,-1.301688095192871,4.0,119.27356
384,12.877958870348131,1.3498994796089532,12.743813465448671,-0.6885870922013352,4.0,119.27356
385,12.911495221572995,1.754403619074449,12.777349816673535,0.13839153941737223,4.0,119.27356
386,12.94503157279786,1.9072118985448656,12.810886167898401,0.9773469658552011,4.0,119.27356
387,12.978567924022725,1.8333682304731087,12.844422519123265,1.6040788284055847,4.0,119.27356
388,13.01210427524759,1.6126511934699985,12.877958870348131,1.8707609185169474,4.0,119.27356
389,13.045640626472455,1.3382753441722919,12.911495221572995,1.7670222758383003,4.0,119.27356
390,13.07917697769732,1.082364017062263,12.94503157279786,1.4086905490032198,4.0,119.27356
391,13.112713328922185,0.8817345407616313,12.978567924022725,0.9661094388312272,4.0,119.27356
392,13.146249680147049,0.7386066316311186,13.012104275247589,0.5792151012466364,4.0,119.27356
393,13.179786031371915,0.6269220782896734,13.045640626472455,0.30713361960466246,4.0,119.27356
394,13.213322382596779,0.5016280091838731,13.079176977697319,0.1303969378914832,4.0,119.27356
395,13.246858733821645,0.31265184348982655,13.112713328922185,-0.01106313225622667,4.0,119.27356
396,13.280395085046509,0.02423368837132312,13.146249680147049,-0.176784431654534,4.0,119.27356
397,13.313931436271375,-0.36434431055999505,13.179786031371915,-0.4040672192142262,4.0,119.27356
398,13.347467787496239,-0.8062702009318308,13.213322382596779,-0.7052573426713465,4.0,119.27356
399,13.381004138721105,-1.2131862434609206,13.246858733821645,-1.0682056029244158,4.0,119.27356
400,13.414540489945969,-1.4820565979929088,13.280395085046509,-1.4481216388700344,4.0,119.27356
401,13.448076841170835,-1.53515264774209,13.313931436271375,-1.757048270349617,4.0,119.27356
402,13.481613192395699,-1.3585936880648604,13.347467787496239,-1.8714288845781402,4.0,119.27356
403,13.515149543620565,-1.0205594428318203,13.682831299744889,0.7618438224101989,-5.0,-149.09195
404,13.548685894845429,-0.6518247738255373,13.716367650969753,0.38971902700729305,-5.0,-149.09195
405,13.582222246070295,-0.38786621826732703,13.749904002194619,0.1340011958725754,-5.0,-149.09195
406,13.615758597295159,-0.2996189179067521,13.783440353419483,-0.04734426627400771,-5.0,-149.09195
407,13.649294948520023,-0.3555447143430926,13.816976704644347,-0.21867455312445647,-5.0,-149.09195
408,13.682831299744889,-0.44188109670897596,13.548685894845429,1.936717961294072,4.0,119.27356
409,13.716367650969753,-0.4304705119440092,13.582222246070293,1.9826227004986472,4.0,119.27356
410,13.749904002194619,-0.2532599289635402,13.615758597295159,1.6930699923579213,4.0,119.27356
411,13.783440353419483,0.06078592852832837,13.649294948520023,1.2307130188742548,4.0,119.27356
412,13.816976704644349,0.40634030191417475,13.682831299744889,0.7618438224101989,4.0,119.27356
413,13.850513055869213,0.6621981745938773,13.716367650969753,0.38971902700729305,4.0,119.27356
414,13.884049407094079,0.7486160961074356,13.749904002194619,0.1340011958725754,4.0,119.27356
415,13.917585758318943,0.647334015252116,13.816976704644349,-0.21867455312446554,3.0,89.45517000000001
416,13.951122109543808,0.38449462010235874,13.850513055869214,-0.4343394478959095,3.0,89.45517000000001
417,13.984658460768673,0.0037283348125230027,13.884049407094079,-0.7219214696644671,3.0,89.45517000000001
418,14.018194811993538,-0.4441285862291685,13.917585758318944,-1.0743581189839628,3.0,89.45517000000001
419,14.051731163218403,-0.8895166857818647,13.951122109543808,-1.44267262823804,3.0,89.45517000000001
420,14.085267514443268,-1.2299902511718217,13.984658460768674,-1.732454367040213,3.0,89.45517000000001
421,14.118803865668133,-1.3432718947076003,14.018194811993538,-1.8183802573440082,3.0,89.45517000000001
422,14.152340216892998,-1.139814986149765,14.051731163218404,-1.5873405904545437,3.0,89.45517000000001
423,14.185876568117862,-0.6267890063857452,14.085267514443268,-0.999869368425031,3.0,89.45517000000001
424,14.219412919342727,0.07030104523126547,14.118803865668133,-0.13648338400207038,3.0,89.45517000000001
425,14.252949270567592,0.7585815864145916,14.152340216892998,0.8077666164023101,3.0,89.45517000000001
426,14.286485621792457,1.27398662214014,14.185876568117862,1.5910730685186172,3.0,89.45517000000001
427,14.320021973017322,1.557291453190934,14.219412919342728,2.0247310102882086,3.0,89.45517000000001
428,14.353558324242186,1.6599205767888199,14.252949270567592,2.049958725020124,3.0,89.45517000000001
429,14.387094675467052,1.6817926520037862,14.286485621792458,1.7486310127188203,3.0,89.45517000000001
430,14.420631026691916,1.6904956207700323,14.320021973017322,1.2862485352695712,3.0,89.45517000000001
431,14.454167377916782,1.6799129788134985,14.320021973017322,1.2862485352695712,4.0,119.27356
432,14.487703729141646,1.5925466306089988,14.353558324242186,0.8257353596163028,4.0,119.27356
433,14.521240080366512,1.3792409324237038,14.387094675467052,0.462094862395752,4.0,119.27356
434,14.554776431591376,1.0428617716586983,14.420631026691916,0.20659783941871143,4.0,119.27356
435,14.588312782816242,0.6318931622769355,14.454167377916782,0.01444736815003574,4.0,119.27356
436,14.621849134041106,0.19852652347274208,14.487703729141646,-0.17305267751863335,4.0,119.27356
437,14.655385485265972,-0.23396448191344774,14.521240080366512,-0.39925729124515635,4.0,119.27356
438,14.688921836490836,-0.6674514043129423,14.554776431591376,-0.6837580046937463,4.0,119.27356
439,14.7224581877157,-1.102655923043413,14.58831278281624,-1.0233763861506244,4.0,119.27356
440,14.755994538940566,-1.5202678365637998,14.621849134041106,-1.3877003454594188,4.0,119.27356
441,14.78953089016543,-1.880335633009494,14.65538548526597,-1.7080569200203093,4.0,119.27356
442,14.823067241390296,-2.1304630216268095,14.688921836490836,-1.8762271653153921,4.0,119.27356
443,14.85660359261516,-2.2159253061099484,14.7224581877157,-1.7722952227786055,4.0,119.27356
444,14.890139943840026,-2.0952242232515093,14.755994538940566,-1.3223976940374456,4.0,119.27356
445,14.92367629506489,-1.7616000352827823,14.78953089016543,-0.5584782960145628,4.0,119.27356
446,14.957212646289756,-1.2603221019745976,15.12489440241408,0.00889806782902846,-5.0,-149.09195
447,14.99074899751462,-0.6890826007794277,15.158430753638944,-0.12182888585333532,-5.0,-149.09195
448,15.024285348739486,-0.1749765722477951,14.890139943840026,1.7456925013548092,4.0,119.27356
449,15.05782169996435,0.16987139928350137,14.92367629506489,1.8795648369415492,4.0,119.27356
450,15.091358051189216,0.2997450242666787,14.957212646289756,1.645811017831068,4.0,119.27356
451,15.12489440241408,0.26506952253601485,14.99074899751462,1.1997320135246372,4.0,119.27356
452,15.158430753638946,0.19098350694292052,15.024285348739486,0.7272919462324758,4.0,119.27356
453,15.19196710486381,0.2040649543570632,15.05782169996435,0.3613666030238221,4.0,119.27356
454,15.225503456088674,0.3507957410506561,15.091358051189214,0.13874711141312882,4.0,119.27356
455,15.25903980731354,0.568210687368408,15.12489440241408,0.00889806782902846,4.0,119.27356
456,15.292576158538404,0.7307687700774038,15.158430753638944,-0.12182888585333532,4.0,119.27356
457,15.32611250976327,0.737871444053993,15.493794265887594,1.4324745120187259,-5.0,-149.09195
458,15.359648860988134,0.5807889020460951,15.527330617112458,1.789488870650112,-5.0,-149.09195
459,15.393185212213,0.3525246424818015,15.560866968337324,1.7456147268854336,-5.0,-149.09195
460,15.426721563437864,0.2032308026451912,15.594403319562188,1.389656888967902,-5.0,-149.09195
461,15.46025791466273,0.26531011198075105,15.32611250976327,-1.600812365871518,4.0,119.27356
462,15.493794265887594,0.580274742529752,15.359648860988134,-1.4503050055890456,4.0,119.27356
463,15.52733061711246,1.063126475269335,15.393185212213,-0.9361073080344215,4.0,119.27356
464,15.560866968337324,1.5303737426391668,15.426721563437864,-0.14365051914878998,4.0,119.27356
465,15.59440331956219,1.7858084752113663,15.46025791466273,0.7266683616476614,4.0,119.27356
466,15.627939670787054,1.718434172965398,15.493794265887594,1.4324745120187259,4.0,119.27356
467,15.66147602201192,1.3529032536254841,15.52733061711246,1.7894888706501308,4.0,119.27356
468,15.695012373236784,0.8237181019428746,15.560866968337324,1.7456147268854336,4.0,119.27356
469,15.72854872446165,0.29710361431717563,15.59440331956219,1.389656888967883,4.0,119.27356
470,15.762085075686514,-0.10731585929479177,15.627939670787054,0.8944722083873248,4.0,119.27356
471,15.795621426911378,-0.3569631483481428,15.963303183035702,-1.9030295605376446,-5.0,-149.09195
472,15.829157778136244,-0.5020497773535887,15.695012373236784,0.09910398242787985,4.0,119.27356
473,15.862694129361108,-0.6390776057610739,15.728548724461648,-0.09488263627060967,4.0,119.27356
474,15.896230480585974,-0.8598210361673341,15.762085075686514,-0.2177663846857998,4.0,119.27356
475,15.929766831810838,-1.205119386866383,15.795621426911378,-0.36392053683874354,4.0,119.27356
476,15.963303183035704,-1.6413345993552613,15.829157778136244,-0.6083216303038308,4.0,119.27356
477,15.996839534260568,-2.0684662083666945,15.862694129361108,-0.9706298294002456,4.0,119.27356
478,16.030375885485434,-2.355888321292389,15.896230480585974,-1.3963013684744647,4.0,119.27356
479,16.063912236710298,-2.391482473682447,15.929766831810838,-1.760705690526354,4.0,119.27356
480,16.097448587935162,-2.12529881626304,15.963303183035702,-1.9030295605376446,4.0,119.27356
481,16.13098493916003,-1.5899562126994593,15.99683953426057,-1.6883620507380102,4.0,119.27356
482,16.164521290384894,-0.8881107586002297,16.030375885485434,-1.0777001485364919,4.0,119.27356
483,16.198057641609758,-0.15143658305643315,16.063912236710298,-0.16959998348165675,4.0,119.27356
484,16.231593992834622,0.5103312004914612,16.097448587935162,0.8181959076053305,4.0,119.27356
485,16.26513034405949,1.044981878514783,16.13098493916003,1.628434736788414,4.0,119.27356
486,16.298666695284354,1.4591795627676243,16.164521290384894,2.0680489908425157,4.0,119.27356
487,16.332203046509218,1.78731481304647,16.198057641609758,2.080822563636656,4.0,119.27356
488,16.36573939773408,2.051774042115704,16.231593992834622,1.7521879321202196,4.0,119.27356
489,16.399275748958946,2.2412500134095406,16.265130344059486,1.2506135612257685,4.0,119.27356
490,16.432812100183813,2.313794396110705,16.298666695284354,0.7445446845506429,4.0,119.27356
491,16.466348451408678,2.2125585593462334,16.332203046509218,0.33960092536578734,4.0,119.27356
492,16.49988480263354,1.8840442766538505,16.36573939773408,0.05925413480556925,4.0,119.27356
493,16.533421153858406,1.3001875715378914,16.399275748958946,-0.13659864109416647,4.0,119.27356
494,16.566957505083273,0.4847873266598258,16.432812100183813,-0.3165828724774125,4.0,119.27356
495,16.600493856308137,-0.4682216685446403,16.466348451408678,-0.5446255393292095,4.0,119.27356
496,16.634030207533,-1.4024791967551726,16.49988480263354,-0.8544419056881579,4.0,119.27356
497,16.667566558757866,-2.1378960804795946,16.533421153858406,-1.2302061611732087,4.0,119.27356
498,16.701102909982733,-2.526484063171864,16.868784666107057,1.7725493134541812,-5.0,-149.09195
499,16.734639261207597,-2.5031149078416175,16.90232101733192,1.340920957066428,-5.0,-149.09195
500,16.76817561243246,-2.1115402423078753,16.634030207533,-1.7740522187458614,4.0,119.27356
501,16.801711963657326,-1.4913698641352022,16.667566558757866,-1.359522629953218,4.0,119.27356
502,16.83524831488219,-0.8229870614532406,16.70110290998273,-0.6062416051485097,4.0,119.27356
503,16.868784666107057,-0.2507565836625566,16.734639261207597,0.32824563188676475,4.0,119.27356
504,16.90232101733192,0.173398479265528,16.76817561243246,1.2029710171567145,4.0,119.27356
505,16.935857368556785,0.4889208095444163,16.801711963657326,1.7903133305284133,4.0,119.27356
506,16.96939371978165,0.7672931897849039,16.83524831488219,1.9706070500091541,4.0,119.27356
507,17.002930071006517,1.0367890635207258,16.868784666107057,1.7725493134541812,4.0,119.27356
508,17.03646642223138,1.2484017561933252,16.90232101733192,1.340920957066428,4.0,119.27356
509,17.070002773456245,1.309852720050009,16.935857368556785,0.8563728821023876,4.0,119.27356
510,17.10353912468111,1.1600695785649466,16.96939371978165,0.4551457893114028,4.0,119.27356
511,17.137075475905977,0.8237289619603597,17.002930071006517,0.1877983865922898,4.0,119.27356
512,17.17061182713084,0.4039532344643378,17.03646642223138,0.026518031293067245,4.0,119.27356
513,17.204148178355705,0.023350800105573374,17.070002773456245,-0.09735777561596619,4.0,119.27356
514,17.23768452958057,-0.23831209407722165,17.10353912468111,-0.2533904374770568,4.0,119.27356
515,17.271220880805437,-0.3667108151898397,17.137075475905977,-0.4868803947057423,4.0,119.27356
516,17.3047572320303,-0.38887490915365713,17.17061182713084,-0.8080481090044795,4.0,119.27356
517,17.338293583255165,-0.33072730446798015,17.874875202853005,-1.2159250767486403,-16.0,-477.09424
518,17.37182993448003,-0.19562274509966243,17.90841155407787,-1.4258633685297455,-16.0,-477.09424
519,17.405366285704893,0.017749556927498862,17.941947905302733,-1.4197879956533161,-16.0,-477.09424
520,17.43890263692976,0.2792022997575971,17.3047572320303,-1.7309452140654593,4.0,119.27356
521,17.472438988154625,0.5153238264806199,17.338293583255165,-1.3516373593194866,4.0,119.27356
522,17.50597533937949,0.6422775644060982,17.37182993448003,-0.6502671313624472,4.0,119.27356
523,17.539511690604353,0.616869396284758,18.076093310202193,1.0238865896689586,-16.0,-477.09424
524,17.57304804182922,0.4585395100554685,18.10962966142706,1.5838611278283832,-16.0,-477.09424
525,17.606584393054085,0.22192398606167935,18.143166012651925,1.8109735627860954,-16.0,-477.09424
526,17.64012074427895,-0.0519233998749333,17.77426614917841,-0.3650941927213693,-4.0,-119.27356
527,17.673657095503813,-0.35611326296339796,17.539511690604353,1.676716900113675,4.0,119.27356
528,17.70719344672868,-0.6891577307364557,17.57304804182922,1.270314995885284,4.0,119.27356
529,17.740729797953545,-1.007052429609548,17.606584393054085,0.7985438395326542,4.0,119.27356
530,17.77426614917841,-1.2102924938838286,17.64012074427895,0.3956546015375925,4.0,119.27356
531,17.807802500403273,-1.192831099048933,17.673657095503813,0.11683069048311791,4.0,119.27356
532,17.84133885162814,-0.9248615028524497,17.70719344672868,-0.05916545297128972,4.0,119.27356
533,17.874875202853005,-0.5042999818781525,17.740729797953545,-0.19703963063663696,4.0,119.27356
534,17.90841155407787,-0.1257667174440768,18.04255695897733,0.25659771692261735,-4.0,-119.27356
535,17.941947905302733,0.02546624472054508,18.076093310202193,1.0238865896689586,-4.0,-119.27356
536,17.975484256527597,-0.11194244928478098,18.109629661427057,1.5838611278283592,-4.0,-119.27356
537,18.009020607752465,-0.43018401222043745,18.143166012651925,1.8109735627860954,-4.0,-119.27356
538,18.04255695897733,-0.7089176215671092,18.17670236387679,1.6966620112763198,-4.0,-119.27356
539,18.076093310202193,-0.7397355026606113,18.210238715101653,1.3373415638735775,-4.0,-119.27356
540,18.109629661427057,-0.4431883935678776,17.941947905302733,-1.4197879956533161,5.0,149.09195
541,18.143166012651925,0.09025557628308485,18.009020607752465,-0.5203064033720387,4.0,119.27356
542,18.17670236387679,0.6566020609937337,18.04255695897733,0.25659771692261735,4.0,119.27356
543,18.210238715101653,1.054263454769989,18.344384120001113,-0.15056578685298444,-4.0,-119.27356
544,18.243775066326517,1.1878864451545572,18.377920471225977,-0.3401701582531951,-4.0,-119.27356
545,18.277311417551385,1.1013532027176225,18.411456822450845,-0.5168931962917349,-4.0,-119.27356
546,18.31084776877625,0.9292674130292711,18.44499317367571,-0.7206266383808947,-4.0,-119.27356
547,18.344384120001113,0.8054951706359713,18.478529524900573,-0.9752996433800468,-4.0,-119.27356
548,18.377920471225977,0.7882416294144171,18.512065876125437,-1.2787251831097497,-4.0,-119.27356
549,18.41145682245084,0.8440167208540179,18.5456022273503,-1.5882078515424651,-4.0,-119.27356
550,18.44499317367571,0.8902450557753958,18.57913857857517,-1.8124989418692512,-4.0,-119.27356
551,18.478529524900573,0.8573216665378383,18.612674929800033,-1.8279907071166146,-4.0,-119.27356
552,18.512065876125437,0.7234614025745281,18.377920471225977,-0.3401701582531951,4.0,119.27356
553,18.5456022273503,0.5038894297920691,18.67974763224976,-0.8803840471002068,-4.0,-119.27356
554,18.57913857857517,0.2153168003828473,18.71328398347463,0.01917404129573442,-4.0,-119.27356
555,18.612674929800033,-0.14501919176104697,18.746820334699493,0.9725849840788997,-4.0,-119.27356
556,18.646211281024897,-0.5828622830389116,18.780356685924357,1.7458873163000144,-4.0,-119.27356
557,18.67974763224976,-1.0674988418488613,19.2163292518476,-1.2170342467380297,-16.0,-477.09424
558,18.71328398347463,-1.510767991760451,19.249865603072468,-1.5106727659233645,-16.0,-477.09424
559,18.746820334699493,-1.7946046966184044,19.283401954297332,-1.7623166068490201,-16.0,-477.09424
560,18.780356685924357,-1.832089916315456,19.316938305522196,-1.8684762324014912,-16.0,-477.09424
561,18.81389303714922,-1.6115995154149447,19.35047465674706,-1.7101912989242114,-16.0,-477.09424
562,18.84742938837409,-1.189257085097898,19.384011007971928,-1.216510279127705,-16.0,-477.09424
563,18.880965739598953,-0.6472318320864445,19.417547359196792,-0.423870101578573,-16.0,-477.09424
564,18.914502090823817,-0.0647108646128826,19.451083710421656,0.5103026601975355,-16.0,-477.09424
565,18.94803844204868,0.4782527117125898,19.08218384694814,-0.21368275157887712,-4.0,-119.27356
566,18.981574793273545,0.8910625836490274,19.115720198173005,-0.44246366038562107,-4.0,-119.27356
567,19.015111144498412,1.0932583059140044,19.149256549397872,-0.6807468322791823,-4.0,-119.27356
568,19.048647495723277,1.061997389517033,19.182792900622736,-0.9365012306715184,-4.0,-119.27356
569,19.08218384694814,0.8623558187413969,19.2163292518476,-1.2170342467380297,-4.0,-119.27356
570,19.115720198173005,0.6234409530947507,19.249865603072465,-1.5106727659233379,-4.0,-119.27356
571,19.149256549397872,0.4696335075074376,18.31084776877625,0.09848091076316583,25.0,745.45975
572,19.182792900622736,0.45241005387530936,19.015111144498412,0.2645004741862327,5.0,149.09195
573,19.2163292518476,0.5234455172618037,19.048647495723277,0.014747926505859673,5.0,149.09195
574,19.249865603072465,0.5586962883612985,18.67974763224976,-0.8803840471002068,17.0,506.91263000000004
575,19.283401954297332,0.41777367491255285,18.71328398347463,0.01917404129573442,17.0,506.91263000000004
576,19.316938305522196,0.01559592143648905,18.746820334699493,0.9725849840788997,17.0,506.91263000000004
577,19.35047465674706,-0.6181035293689728,18.780356685924357,1.7458873163000144,17.0,506.91263000000004
578,19.384011007971925,-1.321079092910677,18.81389303714922,2.1659564421768316,17.0,506.91263000000004
579,19.417547359196792,-1.8473510894111804,18.84742938837409,2.186761112734782,17.0,506.91263000000004
580,19.451083710421656,-1.9744316313932777,18.880965739598953,1.8915130660566186,17.0,506.91263000000004
581,19.48462006164652,-1.615864119658187,18.914502090823817,1.4353834791849789,17.0,506.91263000000004
582,19.518156412871384,-0.8707918792406916,18.94803844204868,0.9668284107725567,17.0,506.91263000000004
583,19.55169276409625,0.020523392884270773,18.981574793273545,0.5718777871016666,17.0,506.91263000000004
584,19.585229115321116,0.7856921958015245,19.015111144498412,0.2645004741862327,17.0,506.91263000000004
585,19.61876546654598,1.2322205081736182,19.048647495723277,0.014747926505859673,17.0,506.91263000000004
586,19.652301817770844,1.3146558743406676,19.48462006164652,1.3582228725856045,5.0,149.09195
587,19.68583816899571,1.1385010497403423,19.518156412871384,1.914634430995367,5.0,149.09195
588,19.719374520220576,0.9019586528315039,19.551692764096252,2.081094016735918,5.0,149.09195
589,19.75291087144544,0.7938253697159506,19.585229115321116,1.8952990161194339,5.0,149.09195
590,19.786447222670304,0.8911481285408566,19.61876546654598,1.4937866766240064,5.0,149.09195
591,19.81998357389517,1.1142849020627956,19.95412897879463,-1.3761552557610963,-4.0,-119.27356
592,19.853519925120036,1.2736505847138595,19.685838168995712,0.6348612821263279,5.0,149.09195
593,19.8870562763449,1.1866378101933823,19.719374520220576,0.3291857434110669,5.0,149.09195
594,19.920592627569764,0.7927932229721835,19.75291087144544,0.09795920000136663,5.0,149.09195
595,19.95412897879463,0.19107007552492253,19.786447222670304,-0.1026737979025481,5.0,149.09195
596,19.987665330019492,-0.42584196359021126,19.81998357389517,-0.3095384120365484,5.0,149.09195
597,20.02120168124436,-0.892675526605437,19.853519925120036,-0.5424115552257446,5.0,149.09195
598,20.054738032469224,-1.161305180422018,19.8870562763449,-0.8071439807979891,5.0,149.09195
599,20.08827438369409,-1.297719106283717,19.920592627569764,-1.0958465988375723,5.0,149.09195
600,20.121810734918952,-1.3971698944364794,19.95412897879463,-1.3761552557610963,5.0,149.09195
601,20.15534708614382,-1.489756973505593,20.28949249104328,1.4459240661587045,-4.0,-119.27356
602,20.188883437368684,-1.511674714203919,20.323028842268144,1.0263609162332228,-4.0,-119.27356
603,20.222419788593548,-1.3628475213071545,20.356565193493008,0.6111337561040536,-4.0,-119.27356
604,20.255956139818412,-1.0028993630868697,20.390101544717872,0.2736911659308398,-4.0,-119.27356
605,20.28949249104328,-0.5067408598244627,20.42363789594274,0.019899864665943165,-4.0,-119.27356
606,20.323028842268144,-0.032478991995868234,20.457174247167604,-0.18368238633257078,-4.0,-119.27356
607,20.356565193493008,0.2769088777044348,20.490710598392468,-0.3745695472306125,-4.0,-119.27356
608,20.390101544717872,0.38524667631320103,20.524246949617332,-0.5758247172162959,-4.0,-119.27356
609,20.42363789594274,0.3805434430850589,20.5577833008422,-0.797609159121441,-4.0,-119.27356
610,20.457174247167604,0.4065732581908836,20.591319652067064,-1.0436718611972433,-4.0,-119.27356
611,20.490710598392468,0.5598438895532473,20.323028842268144,1.0263609162332228,5.0,149.09195
612,20.524246949617332,0.8242514890311585,20.356565193493008,0.6111337561040536,5.0,149.09195
613,20.557783300842196,1.082371939534035,20.390101544717872,0.2736911659308398,5.0,149.09195
614,20.591319652067064,1.1873237716256781,20.725465056966524,-1.5992641994048256,-4.0,-119.27356
615,20.624856003291928,1.0458103554224365,20.759001408191388,-1.2105254327035384,-4.0,-119.27356
616,20.658392354516792,0.6658295597028561,20.792537759416252,-0.5083754399366562,-4.0,-119.27356
617,20.691928705741656,0.1486187233854663,20.826074110641116,0.3934795677974431,-4.0,-119.27356
618,20.725465056966524,-0.36444038165729653,20.859610461865984,1.285965592760041,-4.0,-119.27356
619,20.759001408191388,-0.7568068270314114,20.591319652067064,-1.0436718611972433,5.0,149.09195
620,20.792537759416252,-0.9762180804567449,20.624856003291928,-1.3059068551274708,5.0,149.09195
621,20.826074110641116,-1.028776203274267,20.658392354516792,-1.545788570132661,5.0,149.09195
622,20.859610461865984,-0.940874331584601,20.69192870574166,-1.6807978523049876,5.0,149.09195
623,20.893146813090848,-0.7273227697247665,20.725465056966524,-1.5992641994048256,5.0,149.09195
624,20.926683164315712,-0.3949729424963389,20.759001408191388,-1.2105254327035384,5.0,149.09195
625,20.960219515540576,0.027560094480051433,20.792537759416252,-0.5083754399366562,5.0,149.09195
626,20.993755866765444,0.47120157831078646,20.82607411064112,0.3934795677975376,5.0,149.09195
627,21.027292217990308,0.843346960431413,20.859610461865984,1.285965592760041,5.0,149.09195
628,21.06082856921517,1.0700818713858498,20.893146813090848,1.9451715158347176,5.0,149.09195
629,21.094364920440036,1.1328351471753766,20.926683164315712,2.226817237093772,5.0,149.09195
630,21.1279012716649,1.0744861425752732,20.960219515540576,2.1215191910526947,5.0,149.09195
631,21.161437622889768,0.9705291592984935,20.993755866765444,1.742161338433552,5.0,149.09195
632,21.19497397411463,0.8829295877676747,21.06082856921517,0.8054080046126931,4.0,119.27356
633,21.228510325339496,0.8263316274622367,21.094364920440036,0.45607854635057327,4.0,119.27356
634,21.26204667656436,0.7679458590324503,21.1279012716649,0.19878633458649408,4.0,119.27356
635,21.295583027789228,0.6564530028029241,21.161437622889768,-0.014460849149520293,4.0,119.27356
636,21.32911937901409,0.45382141106568696,21.19497397411463,-0.22601150427980538,4.0,119.27356
637,21.362655730238956,0.14848930446808,21.19497397411463,-0.22601150427980538,5.0,149.09195
638,21.39619208146382,-0.24887662116852435,21.228510325339496,-0.449289758903133,5.0,149.09195
639,21.429728432688687,-0.7127434633006468,21.262046676564363,-0.6753567837855203,5.0,149.09195
640,21.46326478391355,-1.204706172102729,21.295583027789228,-0.8960436082401029,5.0,149.09195
641,21.496801135138416,-1.6714853905222613,21.32911937901409,-1.1192043173585788,5.0,149.09195
642,21.53033748636328,-2.0444178568609463,21.362655730238956,-1.3586927410129497,5.0,149.09195
643,21.563873837588144,-2.2474909261122598,21.39619208146382,-1.602815942258726,5.0,149.09195
644,21.59741018881301,-2.2197088649885233,21.765091944937335,1.3025331960813473,-5.0,-149.09195
645,21.630946540037876,-1.946677521462085,21.7986282961622,0.8720027727872459,-5.0,-149.09195
646,21.66448289126274,-1.4794585613509434,21.832164647387064,0.529623176717322,-5.0,-149.09195
647,21.698019242487604,-0.9173817993344009,21.865700998611928,0.2787216337609455,-5.0,-149.09195
648,21.73155559371247,-0.3584140511349774,21.563873837588147,-0.0371503777781926,5.0,149.09195
649,21.765091944937335,0.14686050213252458,21.59741018881301,0.8834325896113154,5.0,149.09195
650,21.7986282961622,0.600255661421188,21.93277370106166,-0.11766103126593613,-4.0,-119.27356
651,21.832164647387064,1.0174046444421385,21.966310052286524,-0.3271233963225105,-4.0,-119.27356
652,21.86570099861193,1.3808257828442325,21.99984640351139,-0.5528191933094502,-4.0,-119.27356
653,21.899237349836795,1.6262183818711229,21.73155559371247,1.7401231675583426,5.0,149.09195
654,21.93277370106166,1.6756490867025502,21.765091944937335,1.3025331960813473,5.0,149.09195
655,21.966310052286524,1.4951379708261165,22.133991808410848,-1.5897622046146762,-5.0,-149.09195
656,21.99984640351139,1.135728006587101,22.167528159635715,-1.7089058738061722,-5.0,-149.09195
657,22.033382754736255,0.7246500848981929,22.167528159635715,-1.7089058738061722,-4.0,-119.27356
658,22.06691910596112,0.403120618287725,22.20106451086058,-1.5781461583387741,-4.0,-119.27356
659,22.100455457185983,0.24613448118914158,22.637037076783823,-0.0961145519855711,-16.0,-477.09424
660,22.133991808410848,0.2195429717363423,22.670573428008687,-0.2374489596678314,-16.0,-477.09424
661,22.167528159635715,0.2083960094449992,21.99984640351139,-0.5528191933094502,5.0,149.09195
662,22.20106451086058,0.10007384436550194,22.033382754736255,-0.7953528157087366,5.0,149.09195
663,22.234600862085443,-0.1342997758957766,22.06691910596112,-1.060233341041659,5.0,149.09195
664,22.268137213310307,-0.4158625867033202,22.804718832908147,-1.4490945772807613,-16.0,-477.09424
665,22.301673564535175,-0.607026356042452,22.838255184133015,-1.5743517490398238,-16.0,-477.09424
666,22.33520991576004,-0.5980890512431771,22.87179153535788,-1.4067085015291485,-16.0,-477.09424
667,22.368746266984903,-0.3709081896936919,22.20106451086058,-1.5781461583387741,5.0,149.09195
668,22.402282618209767,4.5015856480853465e-05,22.234600862085443,-1.1207069049560432,5.0,149.09195
669,22.435818969434635,0.3989126285618638,22.26813721331031,-0.3676581303726157,5.0,149.09195
670,22.4693553206595,0.7257083134872316,22.301673564535175,0.5238713064937456,5.0,149.09195
671,22.502891671884363,0.9211808837801088,22.670573428008687,-0.2374489596678314,-5.0,-149.09195
672,22.536428023109227,0.9591562285285775,22.70410977923355,-0.4659402185483479,-5.0,-149.09195
673,22.56996437433409,0.8332814155369354,22.43581896943463,1.6521304459823671,4.0,119.27356
674,22.60350072555896,0.5573958012674592,22.4693553206595,1.1984763851188913,4.0,119.27356
675,22.637037076783823,0.1744377584593033,22.502891671884363,0.7252600882200404,4.0,119.27356
676,22.670573428008687,-0.24313912705386698,22.536428023109227,0.3562027128390148,4.0,119.27356
677,22.70410977923355,-0.6122323101619632,22.56996437433409,0.1277534976245731,4.0,119.27356
678,22.73764613045842,-0.8734167988767593,22.60350072555896,0.001734211548710212,4.0,119.27356
679,22.771182481683283,-1.0224345761787332,22.637037076783823,-0.0961145519855711,4.0,119.27356
680,22.804718832908147,-1.1148840356820113,22.670573428008687,-0.2374489596678314,4.0,119.27356
681,22.83825518413301,-1.2315071819748,22.70410977923355,-0.4659402185483479,4.0,119.27356
682,22.87179153535788,-1.4176665751419204,22.73764613045842,-0.7836539446732399,4.0,119.27356
683,22.905327886582743,-1.6347010870356817,23.441909506180583,-1.2540553991897978,-16.0,-477.09424
684,22.938864237807607,-1.761263196707671,23.475445857405447,-1.5808484423778069,-16.0,-477.09424
685,22.97240058903247,-1.6535097471544855,23.50898220863031,-1.8299916321014575,-16.0,-477.09424
686,23.00593694025734,-1.2331457983835337,23.54251855985518,-1.8642786836857794,-16.0,-477.09424
687,23.039473291482203,-0.549627380430952,23.576054911080043,-1.5589806857287167,-16.0,-477.09424
688,23.073009642707067,0.2270175568035273,23.609591262304907,-0.8769225150553467,-16.0,-477.09424
689,23.10654599393193,0.8858898326977287,23.64312761352977,0.08149558531210478,-16.0,-477.09424
690,23.140082345156795,1.2818201663918216,23.676663964754635,1.0940212325153966,-16.0,-477.09424
691,23.173618696381663,1.4015685052572864,23.710200315979503,1.9009010505451134,-16.0,-477.09424
692,23.207155047606527,1.3488808633787739,23.77727301842923,2.294172452718079,-17.0,-506.91263000000004
693,23.24069139883139,1.2637926263831132,23.810809369654095,1.941424705521101,-17.0,-506.91263000000004
694,23.274227750056255,1.2336631991849363,23.84434572087896,1.4342571382088443,-17.0,-506.91263000000004
695,23.307764101281123,1.252839675633645,23.877882072103827,0.9365389164112017,-17.0,-506.91263000000004
696,23.341300452505987,1.2494573142862608,23.91141842332869,0.5383568645435634,-17.0,-506.91263000000004
697,23.37483680373085,1.149925966167728,23.944954774553555,0.24829432960520786,-17.0,-506.91263000000004
698,23.408373154955715,0.9287293970810755,23.97849112577842,0.025796555907094083,-17.0,-506.91263000000004
699,23.441909506180583,0.6121587746840645,24.012027477003286,-0.17813270132148823,-17.0,-506.91263000000004
700,23.475445857405447,0.2489701697301299,24.04556382822815,-0.39811270609560484,-17.0,-506.91263000000004
701,23.50898220863031,-0.11683473138287356,24.04556382822815,-0.39811270609560484,-16.0,-477.09424
702,23.542518559855175,-0.452911269304086,24.079100179453015,-0.6535248210683353,-16.0,-477.09424
703,23.576054911080043,-0.7335487198307767,24.112636530677882,-0.9538078808378112,-16.0,-477.09424
704,23.609591262304907,-0.9365240934329926,24.146172881902746,-1.2918378828921437,-16.0,-477.09424
705,23.64312761352977,-1.044809416793337,24.17970923312761,-1.62377805561426,-16.0,-477.09424
706,23.676663964754635,-1.0497239307714863,24.213245584352475,-1.854794996197707,-16.0,-477.09424
707,23.7102003159795,-0.9541694854493775,24.24678193557734,-1.8562283948191685,-16.0,-477.09424
708,23.743736667204367,-0.775353778532132,24.280318286802206,-1.52179994410595,-16.0,-477.09424
709,23.77727301842923,-0.5434656112479479,23.91141842332869,0.5383568645435634,-4.0,-119.27356
710,23.810809369654095,-0.293062004317057,23.944954774553555,0.24829432960520786,-4.0,-119.27356
711,23.84434572087896,-0.05068582243668456,23.97849112577842,0.025796555907094083,-4.0,-119.27356
712,23.877882072103827,0.17085401945162698,24.012027477003286,-0.17813270132148823,-4.0,-119.27356
713,23.91141842332869,0.36426643552592924,24.04556382822815,-0.39811270609560484,-4.0,-119.27356
714,23.944954774553555,0.5132926916530298,24.079100179453015,-0.6535248210683353,-4.0,-119.27356
715,23.97849112577842,0.5908602775237307,24.11263653067788,-0.9538078808377753,-4.0,-119.27356
716,24.012027477003286,0.578114934298271,24.146172881902746,-1.2918378828921437,-4.0,-119.27356
717,24.04556382822815,0.4868125418877211,24.17970923312761,-1.62377805561426,-4.0,-119.27356
718,24.079100179453015,0.35727051463105314,24.213245584352475,-1.854794996197707,-4.0,-119.27356
719,24.11263653067788,0.22592234184346358,24.24678193557734,-1.8562283948191685,-4.0,-119.27356
720,24.146172881902743,0.08936728026272675,24.280318286802203,-1.5217999441060224,-4.0,-119.27356
721,24.17970923312761,-0.09943580390265123,24.31385463802707,-0.8384164510218816,-4.0,-119.27356
722,24.213245584352475,-0.39217297184072675,24.347390989251934,0.07414079242834996,-4.0,-119.27356
723,24.24678193557734,-0.7879669767087671,24.3809273404768,0.9899630958517581,-4.0,-119.27356
724,24.280318286802203,-1.198083341767561,24.414463691701663,1.6657779714989107,-4.0,-119.27356
725,24.31385463802707,-1.4599557502784617,23.77727301842923,2.294172452718079,16.0,477.09424
726,24.347390989251934,-1.4012683938221222,23.810809369654095,1.941424705521101,16.0,477.09424
727,24.3809273404768,-0.9301604792528784,23.84434572087896,1.4342571382088443,16.0,477.09424
728,24.414463691701663,-0.10982061773329652,24.548609096601123,0.9286559815366967,-4.0,-119.27356
729,24.44800004292653,0.8297933025438767,24.58214544782599,0.5033255895667836,-4.0,-119.27356
730,24.481536394151394,1.5693831034786747,24.615681799050854,0.2158878324947534,-4.0,-119.27356
731,24.51507274537626,1.8424197879973188,24.64921815027572,0.05036262146443901,-4.0,-119.27356
732,24.548609096601123,1.5675367224731362,24.682754501500582,-0.06072517197685864,-4.0,-119.27356
733,24.58214544782599,0.8930310953430046,24.71629085272545,-0.1921746071577288,-4.0,-119.27356
734,24.615681799050854,0.12716306752947742,24.749827203950314,-0.3969133252971751,-4.0,-119.27356
735,24.64921815027572,-0.40585405690063925,24.78336355517518,-0.6944238388649079,-4.0,-119.27356
736,24.682754501500582,-0.5099311234855123,24.816899906400042,-1.065447765692972,-4.0,-119.27356
737,24.716290852725447,-0.19481870323135053,24.850436257624906,-1.4450835105314257,-4.0,-119.27356
738,24.749827203950314,0.3433186190121733,24.883972608849774,-1.7216909360105612,-4.0,-119.27356
739,24.78336355517518,0.8225473564513675,24.91750896007464,-1.758913595042075,-4.0,-119.27356
740,24.816899906400042,1.0038115522288162,24.951045311299502,-1.448706336220161,-4.0,-119.27356
741,24.850436257624906,0.787113344810946,24.984581662524366,-0.7773701841966412,-4.0,-119.27356
742,24.883972608849774,0.2391415868565154,25.018118013749234,0.1354311066373542,-4.0,-119.27356
743,24.91750896007464,-0.4478709749594907,25.051654364974098,1.0600998219429116,-4.0,-119.27356
744,24.951045311299502,-1.0400335015629278,25.085190716198962,1.743369115339471,-4.0,-119.27356
745,24.984581662524366,-1.3533468753549749,25.118727067423826,2.01538229180621,-4.0,-119.27356
746,25.018118013749234,-1.3219090830994553,25.152263418648694,1.8585762095623646,-4.0,-119.27356
747,25.051654364974098,-1.02045137675619,25.185799769873558,1.4017179920693514,-4.0,-119.27356
748,25.085190716198962,-0.6287542244678622,25.219336121098422,0.8473018033251906,-4.0,-119.27356
749,25.118727067423826,-0.34351381784169277,25.252872472323286,0.37605578246241483,-4.0,-119.27356
750,25.152263418648694,-0.27354951269620204,25.286408823548154,0.07754774188343529,-4.0,-119.27356
751,25.185799769873558,-0.3782447768747601,25.319945174773018,-0.0665494744096881,-4.0,-119.27356
752,25.219336121098422,-0.49475505019893334,25.353481525997882,-0.1506437191439293,-4.0,-119.27356
753,25.252872472323286,-0.4425298047206364,25.387017877222746,-0.2884517143341698,-4.0,-119.27356
754,25.28640882354815,-0.13662014770544387,25.42055422844761,-0.5566928290361962,-4.0,-119.27356
755,25.319945174773018,0.36444836307293865,25.454090579672478,-0.9561767825937139,-4.0,-119.27356
756,25.353481525997882,0.8986421637213243,25.487626930897342,-1.399387979599178,-4.0,-119.27356
757,25.387017877222746,1.2885593413405392,25.521163282122206,-1.7302477689861893,-4.0,-119.27356
758,25.42055422844761,1.4171141752045053,25.55469963334707,-1.77710600298415,-4.0,-119.27356
759,25.454090579672478,1.2555440870370422,25.588235984571938,-1.427339442103559,-4.0,-119.27356
760,25.487626930897342,0.8472570118087283,25.621772335796802,-0.693888697487557,-4.0,-119.27356
761,25.521163282122206,0.27455245419737856,25.655308687021666,0.26459475679176214,-4.0,-119.27356
762,25.55469963334707,-0.36412780008845325,25.68884503824653,1.1924017697859948,-4.0,-119.27356
763,25.588235984571938,-0.956821911195305,25.688845038246534,1.1924017697860632,-3.0,-89.45517000000001
764,25.621772335796802,-1.375212274329684,25.755917740696262,2.059979889644806,-4.0,-119.27356
765,25.655308687021666,-1.4932077885697481,25.789454091921126,1.8716777987062412,-4.0,-119.27356
766,25.68884503824653,-1.2399911700606092,25.82299044314599,1.4180862351842551,-4.0,-119.27356
767,25.722381389471394,-0.6638853128336791,25.856526794370854,0.8904055253169503,-4.0,-119.27356
768,25.755917740696262,0.047568914492229164,25.89006314559572,0.4385630666837528,-4.0,-119.27356
769,25.789454091921126,0.6330422322417408,25.923599496820586,0.12229949193990877,-4.0,-119.27356
770,25.82299044314599,0.8887619512563872,25.95713584804545,-0.08492389796769412,-4.0,-119.27356
771,25.856526794370854,0.7847031330615506,25.990672199270314,-0.2563756324613058,-4.0,-119.27356
772,25.89006314559572,0.48171897114587314,26.02420855049518,-0.46647346606686657,-4.0,-119.27356
773,25.923599496820586,0.23136485740942253,26.057744901720046,-0.7597544562689698,-4.0,-119.27356
774,25.95713584804545,0.22373346971272948,26.09128125294491,-1.1369582338523727,-4.0,-119.27356
775,25.990672199270314,0.48325490697945056,26.124817604169774,-1.5502549205452567,-4.0,-119.27356
776,26.02420855049518,0.8726058949165842,26.15835395539464,-1.9038297790228826,-4.0,-119.27356
777,26.057744901720046,1.1867973278272617,26.191890306619506,-2.0674189060601216,-4.0,-119.27356
778,26.09128125294491,1.2654601731662947,26.22542665784437,-1.9135632033623264,-4.0,-119.27356
779,26.124817604169774,1.0554439030640033,26.258963009069234,-1.3755382365535669,-4.0,-119.27356
780,26.15835395539464,0.6032836479357186,26.2924993602941,-0.5002393277004903,-4.0,-119.27356
781,26.191890306619506,0.006029118811452235,26.326035711518966,0.5403985706219261,-4.0,-119.27356
782,26.22542665784437,-0.6340149682657511,26.35957206274383,1.4991755888023925,-4.0,-119.27356
783,26.258963009069234,-1.2242939049512829,26.35957206274383,1.4991755888023925,-3.0,-89.45517000000001
784,26.292499360294098,-1.6749251675358576,26.393108413968694,2.1471718877065564,-3.0,-89.45517000000001
785,26.326035711518966,-1.8986660962928072,26.42664476519356,2.363018514015071,-3.0,-89.45517000000001
786,26.35957206274383,-1.8367072040773536,25.82299044314599,1.4180862351842551,16.0,477.09424
787,26.393108413968694,-1.4965984284550515,25.856526794370854,0.8904055253169503,16.0,477.09424
788,26.426644765193558,-0.9670545401292868,25.890063145595718,0.43856306668380063,16.0,477.09424
789,26.460181116418426,-0.38804518601448906,26.56079017009302,0.6333100223568657,-3.0,-89.45517000000001
790,26.49371746764329,0.10905095068377693,26.594326521317885,0.23021018725970668,-3.0,-89.45517000000001
791,26.527253818868154,0.4526901889165026,26.62786287254275,-0.06613991954614723,-3.0,-89.45517000000001
792,26.560790170093018,0.644018416307304,26.661399223767614,-0.29768216133209613,-3.0,-89.45517000000001
793,26.594326521317885,0.7306808662473503,26.69493557499248,-0.513644660236873,-3.0,-89.45517000000001
794,26.62786287254275,0.7649143118564491,26.728471926217345,-0.7544158576068924,-3.0,-89.45517000000001
795,26.661399223767614,0.7744904438318038,26.76200827744221,-1.04502243505911,-3.0,-89.45517000000001
796,26.694935574992478,0.7623754712114312,26.795544628667074,-1.3845968158624715,-3.0,-89.45517000000001
797,26.728471926217345,0.7274351897921657,26.82908097989194,-1.7277178261009123,-3.0,-89.45517000000001
798,26.76200827744221,0.6800281869075088,26.862617331116805,-1.9722240918597886,-3.0,-89.45517000000001
799,26.795544628667074,0.6318229727376978,26.89615368234167,-1.9771291862351759,-3.0,-89.45517000000001
800,26.829080979891938,0.5676273620029999,26.929690033566533,-1.6203728974339715,-3.0,-89.45517000000001
801,26.8626173311168,0.43187291515390963,26.963226384791398,-0.8749100375316274,-3.0,-89.45517000000001
802,26.89615368234167,0.1571078187950723,26.996762736016265,0.14324696734499706,-3.0,-89.45517000000001
803,26.929690033566533,-0.27429126524291403,27.03029908724113,1.1955078245280517,-3.0,-89.45517000000001
804,26.963226384791398,-0.7820447065179239,27.063835438465993,2.0108256674559466,-3.0,-89.45517000000001
805,26.99676273601626,-1.2022130859576075,27.097371789690857,2.3998863901587066,-3.0,-89.45517000000001
806,27.03029908724113,-1.3678946699250805,27.130908140915725,2.329329038020879,-3.0,-89.45517000000001
807,27.063835438465993,-1.20572639063057,27.16444449214059,1.9165686921493166,-3.0,-89.45517000000001
808,27.097371789690857,-0.7815767465841608,27.197980843365453,1.3551517911033153,-3.0,-89.45517000000001
809,27.13090814091572,-0.26408749992097763,27.231517194590317,0.8194380264847401,-3.0,-89.45517000000001
810,27.16444449214059,0.1693605890143539,27.265053545815185,0.40151360104241207,-3.0,-89.45517000000001
811,27.197980843365453,0.4237329314744211,27.29858989704005,0.10477494542390545,-3.0,-89.45517000000001
812,27.231517194590317,0.5193846273629434,27.332126248264913,-0.11924903978781097,-3.0,-89.45517000000001
813,27.26505354581518,0.5522574106993511,27.365662599489777,-0.325684663332005,-3.0,-89.45517000000001
814,27.298589897040046,0.6136415676451944,27.39919895071464,-0.5513542935027466,-3.0,-89.45517000000001
815,27.332126248264913,0.7249566578508048,27.43273530193951,-0.8142825660228458,-3.0,-89.45517000000001
816,27.365662599489777,0.8285821435446792,27.197980843365453,1.3551517911033153,5.0,149.09195
817,27.39919895071464,0.8360228578196258,27.231517194590317,0.8194380264847401,5.0,149.09195
818,27.432735301939505,0.6965876216836533,27.26505354581518,0.4015136010424435,5.0,149.09195
819,27.466271653164373,0.43679820013300713,27.29858989704005,0.10477494542390545,5.0,149.09195
820,27.499808004389237,0.14089324520941476,27.332126248264913,-0.11924903978781097,5.0,149.09195
821,27.5333443556141,-0.11412322091066963,27.365662599489777,-0.325684663332005,5.0,149.09195
822,27.566880706838965,-0.3169873127148647,27.39919895071464,-0.5513542935027466,5.0,149.09195
823,27.600417058063833,-0.522503329546968,27.43273530193951,-0.8142825660228458,5.0,149.09195
824,27.633953409288697,-0.7894665492870768,27.466271653164373,-1.1203612125905398,5.0,149.09195
825,27.66748976051356,-1.1078645476590272,27.499808004389237,-1.4578175648046008,5.0,149.09195
826,27.701026111738425,-1.3772274306889252,27.5333443556141,-1.7778016804618433,5.0,149.09195
827,27.734562462963293,-1.454598200996843,27.56688070683897,-1.9811862106255016,5.0,149.09195
828,27.768098814188157,-1.2390586328214799,27.600417058063833,-1.9376641983463423,5.0,149.09195
829,27.80163516541302,-0.740407933579319,27.633953409288697,-1.5442679277476632,5.0,149.09195
830,27.835171516637885,-0.0921322919285241,27.66748976051356,-0.7973139696581034,5.0,149.09195
831,27.86870786786275,0.502190905254094,27.701026111738425,0.16976750902644414,5.0,149.09195
832,27.902244219087617,0.864232020286751,27.734562462963293,1.1185092059874577,5.0,149.09195
833,27.93578057031248,0.9274156020149902,27.768098814188157,1.8006911718998257,5.0,149.09195
834,27.969316921537345,0.7675700312142368,27.80163516541302,2.0660942760131786,5.0,149.09195
835,28.00285327276221,0.5613206293898773,27.835171516637885,1.9205759711809878,5.0,149.09195
836,28.036389623987077,0.4922186051818756,27.868707867862753,1.50377337301789,5.0,149.09195
837,28.06992597521194,0.6500143476823187,27.902244219087617,1.0064825951587268,5.0,149.09195
838,28.103462326436805,0.9749928935344748,27.93578057031248,0.5804045077218628,5.0,149.09195
839,28.13699867766167,1.2802745722640054,27.969316921537345,0.28754919385660943,5.0,149.09195
840,28.170535028886537,1.3441066394625634,28.002853272762213,0.10366675392825414,5.0,149.09195
841,28.2040713801114,1.025061045785662,28.036389623987077,-0.042888588545039345,5.0,149.09195
842,28.237607731336265,0.34121006205173365,28.06992597521194,-0.22711837007428234,5.0,149.09195
843,28.27114408256113,-0.5262834612888777,28.103462326436805,-0.49720303009219613,5.0,149.09195
844,28.304680433785997,-1.30755543359603,28.136998677661673,-0.8586065643888278,5.0,149.09195
845,28.33821678501086,-1.760428577658981,28.170535028886537,-1.2647790591839692,5.0,149.09195
846,28.371753136235725,-1.7709724084054863,28.2040713801114,-1.6144386801691686,5.0,149.09195
847,28.40528948746059,-1.3889346185543863,28.237607731336265,-1.767541763367049,5.0,149.09195
848,28.438825838685453,-0.7852210835992385,28.27114408256113,-1.5913818326879703,5.0,149.09195
849,28.47236218991032,-0.1621068617934103,28.304680433785997,-1.0283215672046448,5.0,149.09195
850,28.505898541135185,0.3303328643750509,28.33821678501086,-0.15078326497554828,5.0,149.09195
851,28.53943489236005,0.6304591058696833,28.371753136235725,0.8380266928231382,5.0,149.09195
852,28.572971243584913,0.7481563256950547,28.40528948746059,1.6734568115199329,5.0,149.09195
853,28.60650759480978,0.7207833400660129,28.438825838685457,2.1392454572075406,5.0,149.09195
854,28.640043946034645,0.5790998577692853,28.47236218991032,2.1572765083771106,5.0,149.09195
855,28.67358029725951,0.3467577506558781,28.505898541135185,1.806402797623218,5.0,149.09195
856,28.707116648484373,0.06594505438596875,28.53943489236005,1.264365248978057,5.0,149.09195
857,28.74065299970924,-0.18471819709205922,28.572971243584917,0.7133393200579905,5.0,149.09195
858,28.774189350934105,-0.31098490538680057,28.60650759480978,0.2650941358014984,5.0,149.09195
859,28.80772570215897,-0.2595185036302741,28.640043946034645,-0.06031562105885701,5.0,149.09195
860,28.841262053383833,-0.06968996008845332,28.67358029725951,-0.30704208514551695,5.0,149.09195
861,28.874798404608697,0.12726654925346442,28.707116648484373,-0.538161672877669,5.0,149.09195
862,28.908334755833565,0.17457575634542014,28.74065299970924,-0.8025278892803945,5.0,149.09195
863,28.94187110705843,-0.018640077834508103,28.774189350934105,-1.1224084739881435,5.0,149.09195
864,28.975407458283293,-0.42402460197565756,28.80772570215897,-1.4903491355087648,5.0,149.09195
865,29.008943809508157,-0.9097908251453982,28.841262053383833,-1.8616661685554252,5.0,149.09195
866,29.042480160733025,-1.302741063221739,28.908334755833565,-2.2087511515868816,4.0,119.27356
867,29.07601651195789,-1.4519344701507466,28.94187110705843,-1.9247850744866208,4.0,119.27356
868,29.109552863182753,-1.2697493092839476,28.975407458283293,-1.2359598305626758,4.0,119.27356
869,29.143089214407617,-0.7521500159271912,29.008943809508157,-0.21657629957780478,4.0,119.27356
870,29.176625565632484,0.01574860566028842,29.042480160733025,0.9235916136335213,4.0,119.27356
871,29.21016191685735,0.872432846769117,29.07601651195789,1.9079834512912055,4.0,119.27356
872,29.243698268082213,1.6180893917339245,29.109552863182753,2.504637489769046,4.0,119.27356
873,29.277234619307077,2.0743609201208772,29.143089214407617,2.6188177337331227,4.0,119.27356
874,29.310770970531944,2.1447989935291547,29.176625565632484,2.316129599504049,4.0,119.27356
875,29.34430732175681,1.8471095352201414,29.21016191685735,1.769827459540549,4.0,119.27356
876,29.377843672981673,1.3004162550208356,29.243698268082213,1.1705269427305978,4.0,119.27356
877,29.411380024206537,0.6755131346380836,29.277234619307077,0.6510179812097078,4.0,119.27356
878,29.4449163754314,0.13361463004791352,29.277234619307077,0.6510179812097078,5.0,149.09195
879,29.47845272665627,-0.2221976974766238,29.310770970531944,0.25878805935499366,5.0,149.09195
880,29.511989077881132,-0.3722778871448644,29.34430732175681,-0.02618531982995041,5.0,149.09195
881,29.545525429105997,-0.38222354901845645,29.377843672981673,-0.25499436230420053,5.0,149.09195
882,29.57906178033086,-0.37993475582520586,29.4449163754314,-0.7471078982738422,4.0,119.27356
883,29.61259813155573,-0.5040271907012422,29.444916375431404,-0.7471078982738771,5.0,149.09195
884,29.646134482780592,-0.8316465011330098,29.47845272665627,-1.0767384470215027,5.0,149.09195
885,29.679670834005456,-1.3179963612260372,29.511989077881132,-1.459163845919781,5.0,149.09195
886,29.71320718523032,-1.7907381743275663,29.545525429105997,-1.8287330997788356,5.0,149.09195
887,29.746743536455188,-2.0189384755101956,29.579061780330864,-2.060489024078599,5.0,149.09195
888,29.780279887680052,-1.829274679323789,29.61259813155573,-2.0037938347917077,5.0,149.09195
889,29.813816238904916,-1.2066715682179197,29.646134482780592,-1.554066122059168,5.0,149.09195
890,29.84735259012978,-0.31946793654483957,29.679670834005456,-0.729040737529203,5.0,149.09195
891,29.880888941354648,0.5510103335275697,29.713207185230324,0.3021227216492852,5.0,149.09195
892,29.914425292579512,1.1433904610551242,29.746743536455188,1.2698791558393678,5.0,149.09195
893,29.947961643804376,1.3408611855487207,29.780279887680052,1.918490327577718,5.0,149.09195
894,29.98149799502924,1.2176614085033437,29.813816238904916,2.119711187154225,5.0,149.09195
895,30.015034346254104,0.9814489958962858,29.84735259012978,1.9177128353984738,5.0,149.09195
896,30.048570697478972,0.8465285004718598,29.880888941354648,1.4820436155490917,5.0,149.09195
897,30.082107048703836,0.9113614696097808,29.914425292579512,1.0058517507817222,5.0,149.09195
898,30.1156433999287,1.1064886557400173,29.947961643804376,0.6155934780107366,5.0,149.09195
899,30.149179751153564,1.2359761158596496,29.98149799502924,0.33856798319439374,5.0,149.09195
900,30.182716102378432,1.0872535173935818,30.015034346254108,0.12886818347778903,5.0,149.09195
901,30.216252453603296,0.5537900084127999,30.048570697478972,-0.08185219309020611,5.0,149.09195
902,30.24978880482816,-0.29136563843009844,30.082107048703836,-0.3448473898467557,5.0,149.09195
903,30.283325156053024,-1.2127860251116342,30.1156433999287,-0.6798271113016402,5.0,149.09195
904,30.316861507277892,-1.9160040251912127,30.149179751153568,-1.0753675457415475,5.0,149.09195
905,30.350397858502756,-2.182263346666868,30.182716102378432,-1.487500771825142,5.0,149.09195
906,30.38393420972762,-1.9610004602603273,30.216252453603296,-1.8332313932770674,5.0,149.09195
907,30.417470560952484,-1.3738135574875268,30.24978880482816,-1.9939761968628589,5.0,149.09195
908,30.45100691217735,-0.6383146450244781,30.283325156053024,-1.847322208017628,5.0,149.09195
909,30.484543263402216,0.03578604587991884,30.316861507277892,-1.3265175945410048,5.0,149.09195
910,30.51807961462708,0.5217854923759786,30.350397858502756,-0.4784991855724865,5.0,149.09195
911,30.551615965851944,0.7978947606940717,30.38393420972762,0.5219062701337728,5.0,149.09195
912,30.58515231707681,0.9263743755844732,30.417470560952484,1.4248435234975305,5.0,149.09195
913,30.618688668301676,1.0091888631815964,30.451006912177352,2.005951379850912,5.0,149.09195
914,30.65222501952654,1.1306641228602634,30.484543263402216,2.1600183109371085,5.0,149.09195
915,30.685761370751404,1.3004017453253431,30.51807961462708,1.9341721099945786,5.0,149.09195
916,30.719297721976268,1.4280606277467898,30.551615965851944,1.4850720220790288,5.0,149.09195
917,30.752834073201136,1.362767799179951,30.585152317076812,0.991631080453857,5.0,149.09195
918,30.786370424426,0.9897772940592965,30.618688668301676,0.5769349583412796,5.0,149.09195
919,30.819906775650864,0.3232129211903297,30.65222501952654,0.27763954595282986,5.0,149.09195
920,30.853443126875728,-0.4767155819742986,30.685761370751404,0.06236913408506911,5.0,149.09195
921,30.886979478100596,-1.1805835808053202,30.71929772197627,-0.12827569968433805,5.0,149.09195
922,30.92051582932546,-1.60757917254858,30.752834073201136,-0.349954495830911,5.0,149.09195
923,30.954052180550324,-1.7045119499259271,30.786370424426,-0.6411929592824909,5.0,149.09195
924,30.987588531775188,-1.5424489771944072,30.819906775650864,-1.017183278383478,5.0,149.09195
925,31.021124883000052,-1.2486769586352602,30.853443126875728,-1.4558051504095093,5.0,149.09195
926,31.05466123422492,-0.9293866584987974,30.886979478100596,-1.8771638678937963,5.0,149.09195
927,31.088197585449784,-0.6330198078930089,30.92051582932546,-2.138653123344533,5.0,149.09195
928,31.121733936674648,-0.36694216916888683,30.954052180550324,-2.071096653654991,5.0,149.09195
929,31.155270287899512,-0.1381384582647422,31.322952044023836,-0.10555400997883993,-5.0,-149.09195
930,31.18880663912438,0.02778493356131416,31.356488395248704,-0.18124726264613314,-5.0,-149.09195
931,31.222342990349244,0.11113531740035125,31.390024746473568,-0.20234668076700135,-5.0,-149.09195
932,31.255879341574108,0.14266170336408424,31.423561097698432,-0.25334118136526274,-5.0,-149.09195
933,31.289415692798972,0.21824208406808762,31.457097448923296,-0.36111273329843213,-5.0,-149.09195
934,31.32295204402384,0.45217647448284326,31.490633800148164,-0.5093459163309012,-5.0,-149.09195
935,31.356488395248704,0.8888488313962679,31.524170151373028,-0.6709670083983498,-5.0,-149.09195
936,31.390024746473568,1.4375904711230276,31.222342990349244,1.2921580061123001,5.0,149.09195
937,31.423561097698432,1.8930027228806066,31.255879341574108,0.619370905708807,5.0,149.09195
938,31.4570974489233,2.0443320816092423,31.289415692798975,0.1377499316093123,5.0,149.09195
939,31.490633800148164,1.8061199125038034,31.32295204402384,-0.1055540099788657,5.0,149.09195
940,31.524170151373028,1.278078534302062,31.356488395248704,-0.18124726264613314,5.0,149.09195
941,31.557706502597892,0.6852968976854379,31.69185190749735,-0.9362975777184295,-4.0,-119.27356
942,31.591242853822756,0.23091957443839975,31.725388258722216,-0.6012750866182514,-4.0,-119.27356
943,31.624779205047624,-0.04069319877641647,31.758924609947083,-0.10476254269965558,-4.0,-119.27356
944,31.658315556272488,-0.2698426193099141,31.792460961171948,0.45370696162795576,-4.0,-119.27356
945,31.69185190749735,-0.6679027181543307,31.82599731239681,0.9364873403223383,-4.0,-119.27356
946,31.725388258722216,-1.337000768709183,31.859533663621676,1.2260604390098264,-4.0,-119.27356
947,31.758924609947083,-2.151842835393476,31.926606366071407,1.1197780914050293,-5.0,-149.09195
948,31.792460961171948,-2.797377941617549,31.96014271729627,0.8524732373810128,-5.0,-149.09195
949,31.82599731239681,-2.9493394957902757,31.993679068521136,0.5716087328902393,-5.0,-149.09195
950,31.859533663621676,-2.480867182841511,32.027215419746,0.3401109731136116,-5.0,-149.09195
951,31.893070014846543,-1.5530828926761167,32.06075177097087,0.1718675933033094,-5.0,-149.09195
952,31.926606366071407,-0.5231772292385324,32.094288122195735,0.04696789134432246,-5.0,-149.09195
953,31.96014271729627,0.26930804493398564,32.127824473420596,-0.06099814410874506,-5.0,-149.09195
954,31.993679068521136,0.6908195281344836,32.127824473420596,-0.06099814410874506,-4.0,-119.27356
955,32.027215419746,0.8518107417633769,32.161360824645456,-0.165956767246139,-4.0,-119.27356
956,32.06075177097087,0.9837443763132568,32.194897175870324,-0.2688842701869788,-4.0,-119.27356
957,32.09428812219573,1.2571162971093506,32.228433527095184,-0.37050595746297565,-4.0,-119.27356
958,32.127824473420596,1.6676117835982178,32.26196987832005,-0.48190333369470756,-4.0,-119.27356
959,32.16136082464546,2.051084341988864,32.32904258076979,-0.7871167392906548,-5.0,-149.09195
960,32.194897175870324,2.196286158392881,32.36257893199465,-0.9496526283026817,-5.0,-149.09195
961,32.22843352709519,1.9733200295719169,32.396115283219515,-1.0342981437786614,-5.0,-149.09195
962,32.26196987832006,1.4044520179326505,32.42965163444438,-0.9549127580804785,-5.0,-149.09195
963,32.29550622954492,0.6485895935031583,32.463187985669244,-0.6605196624077958,-5.0,-149.09195
964,32.32904258076979,-0.08282728207001544,32.49672433689411,-0.1774350826384919,-5.0,-149.09195
965,32.36257893199465,-0.6313892919891209,32.194897175870324,-0.2688842701869788,5.0,149.09195
966,32.396115283219515,-0.9622192508688567,32.22843352709519,-0.3705059574629972,5.0,149.09195
967,32.42965163444438,-1.157491890020164,32.26196987832006,-0.48190333369473115,5.0,149.09195
968,32.463187985669244,-1.3346093394490446,32.63086974179357,1.1816922506044372,-5.0,-149.09195
969,32.49672433689411,-1.543860957500542,32.664406093018435,0.9987271169836285,-5.0,-149.09195
970,32.53026068811898,-1.7188393395510075,32.6979424442433,0.7091160148622409,-5.0,-149.09195
971,32.56379703934384,-1.715063436094594,32.73147879546816,0.4217032409446386,-5.0,-149.09195
972,32.59733339056871,-1.4094377084504741,32.76501514669303,0.20433029067460926,-5.0,-149.09195
973,32.63086974179357,-0.7944427517252028,32.79855149791789,0.06922726249008052,-5.0,-149.09195
974,32.664406093018435,-0.007665544921385548,32.83208784914276,-0.012005369439790957,-5.0,-149.09195
975,32.6979424442433,0.7216435068607538,32.86562420036763,-0.08124669485723918,-5.0,-149.09195
976,32.73147879546816,1.1787690153931425,32.89916055159249,-0.1728552427353769,-5.0,-149.09195
977,32.76501514669303,1.263833663006561,32.194897175870324,-0.2688842701869788,17.0,506.91263000000004
978,32.79855149791789,1.033011735799724,32.22843352709519,-0.3705059574629972,17.0,506.91263000000004
979,32.83208784914276,0.6606670901615536,32.966233254042216,-0.48356806717250767,-4.0,-119.27356
980,32.86562420036763,0.34534512497985165,32.99976960526708,-0.6915692885757665,-4.0,-119.27356
981,32.89916055159249,0.2134015873402569,33.033305956491944,-0.8910482399270049,-4.0,-119.27356
982,32.932696902817355,0.272825177318029,33.06684230771681,-1.0166704845403471,-4.0,-119.27356
983,32.96623325404222,0.43420274497060796,33.10037865894168,-0.9908970859502468,-4.0,-119.27356
984,32.99976960526708,0.572247765343684,33.13391501016654,-0.7578626806815386,-4.0,-119.27356
985,33.03330595649195,0.5838021118155231,33.16745136139141,-0.3224070881083788,-4.0,-119.27356
986,33.06684230771681,0.41555974462671996,32.86562420036762,-0.08124669485722451,6.0,178.91034000000002
987,33.10037865894168,0.06625356344825516,32.89916055159249,-0.1728552427353769,6.0,178.91034000000002
988,33.13391501016655,-0.41551074884176437,33.268060415066,1.1293909400654898,-4.0,-119.27356
989,33.16745136139141,-0.9284451305894551,33.301596766290864,1.2486239993938402,-4.0,-119.27356
990,33.200987712616275,-1.3260577878118323,33.33513311751573,1.1297284257093871,-4.0,-119.27356
991,33.234524063841135,-1.4562871117488476,33.36866946874059,0.8572516326005843,-4.0,-119.27356
992,33.268060415066,-1.2303756037594686,33.40220581996546,0.5422917350392837,-4.0,-119.27356
993,33.30159676629087,-0.6825462945179933,33.43574217119033,0.27112767017989314,-4.0,-119.27356
994,33.33513311751573,0.027199243694148372,33.46927852241519,0.07845089159625177,-4.0,-119.27356
995,33.3686694687406,0.681391564184571,33.502814873640055,-0.04744455399025096,-4.0,-119.27356
996,33.40220581996547,1.1074381951376684,33.53635122486492,-0.1400522189319314,-4.0,-119.27356
997,33.43574217119033,1.2514947247796928,33.56988757608978,-0.23074836086224715,-4.0,-119.27356
998,33.469278522415195,1.1816973033864984,33.30159676629087,1.2486239993938655,5.0,149.09195
999,33.502814873640055,1.026339234237042,33.33513311751573,1.1297284257093871,5.0,149.09195
1000,33.53635122486492,0.8921150261631764,33.3686694687406,0.8572516326005266,5.0,149.09195
1001,33.56988757608979,0.8130005109166079,33.40220581996547,0.542291735039217,5.0,149.09195
1002,33.60342392731465,0.7515766971036367,33.43574217119033,0.27112767017989314,5.0,149.09195
1003,33.63696027853952,0.636830820554643,33.469278522415195,0.07845089159621096,5.0,149.09195
1004,33.67049662976438,0.4053640575554948,33.502814873640055,-0.04744455399025096,5.0,149.09195
1005,33.70403298098925,0.02455438157207897,33.8381783858887,-0.7827210298125551,-4.0,-119.27356
1006,33.737569332214115,-0.5014372990723908,33.87171473711357,-0.317625788971989,-4.0,-119.27356
1007,33.771105683438975,-1.1313974934169178,33.60342392731465,-0.3385987604514943,5.0,149.09195
1008,33.80464203466384,-1.7871832099153986,33.63696027853952,-0.47268721689530174,5.0,149.09195
1009,33.83817838588871,-2.358724922252879,33.670496629764386,-0.6357968504405814,5.0,149.09195
1010,33.87171473711357,-2.7202075475338847,33.70403298098925,-0.8195821511929475,5.0,149.09195
1011,33.90525108833844,-2.7591387518541146,33.737569332214115,-0.9923917824692438,5.0,149.09195
1012,33.9387874395633,-2.4145195973305675,33.771105683438975,-1.0926033024588089,5.0,149.09195
1013,33.97232379078817,-1.7121762737412225,33.80464203466384,-1.042156900388742,5.0,149.09195
1014,34.005860142013034,-0.7758585913121151,33.83817838588871,-0.7827210298125001,5.0,149.09195
1015,34.039396493237895,0.203955263729637,33.87171473711357,-0.317625788971989,5.0,149.09195
1016,34.07293284446276,1.0372440270401215,34.20707824936222,-0.016115388340339293,-4.0,-119.27356
1017,34.10646919568763,1.6034525806270559,34.24061460058709,-0.14809471141304892,-4.0,-119.27356
1018,34.14000554691249,1.8842872917992135,34.27415095181195,-0.2708236447597493,-4.0,-119.27356
1019,34.17354189813736,1.9467893629219952,34.307687303036815,-0.396347661228312,-4.0,-119.27356
1020,34.20707824936222,1.893693669238961,34.341223654261675,-0.5292234167332084,-4.0,-119.27356
1021,34.24061460058709,1.8112917732897345,34.07293284446276,0.993298054998,5.0,149.09195
1022,34.274150951811954,1.7371917375921,34.10646919568763,0.6682183858954786,5.0,149.09195
1023,34.307687303036815,1.6550860886772207,34.14000554691249,0.37459249243571857,5.0,149.09195
1024,34.34122365426168,1.5139950559409194,34.17354189813736,0.1490207116379739,5.0,149.09195
1025,34.37476000548654,1.2637478510651214,34.20707824936222,-0.016115388340339293,5.0,149.09195
1026,34.40829635671141,0.8896038696610918,34.24061460058709,-0.14809471141304892,5.0,149.09195
1027,34.44183270793628,0.4241153020080866,34.274150951811954,-0.2708236447597753,5.0,149.09195
1028,34.47536905916114,-0.0720870641528103,34.307687303036815,-0.396347661228312,5.0,149.09195
1029,34.50890541038601,-0.5426939268907494,34.34122365426168,-0.5292234167332366,5.0,149.09195
1030,34.542441761610874,-0.9516867252225203,34.37476000548655,-0.6718869187618066,5.0,149.09195
1031,34.575978112835735,-1.271647230864272,34.71012351773519,1.2232186407034618,-4.0,-119.27356
1032,34.6095144640606,-1.4642784823202102,34.74365986896006,1.1297707218899729,-4.0,-119.27356
1033,34.64305081528546,-1.483746754976428,34.77719622018492,0.8918943508736177,-4.0,-119.27356
1034,34.67658716651033,-1.30967456127021,34.81073257140979,0.6099697273371582,-4.0,-119.27356
1035,34.7101235177352,-0.9809325742767875,34.844268922634654,0.36121935549961887,-4.0,-119.27356
1036,34.74365986896006,-0.5935635395306824,34.877805273859515,0.17536089483011902,-4.0,-119.27356
1037,34.777196220184926,-0.2578447479436534,34.91134162508438,0.03991739028291438,-4.0,-119.27356
1038,34.81073257140979,-0.046620420512117136,34.94487797630924,-0.07688205255498617,-4.0,-119.27356
1039,34.844268922634654,0.029540284030945288,34.97841432753411,-0.2038474218520774,-4.0,-119.27356
1040,34.87780527385952,0.01191108606983431,35.01195067875898,-0.356060296705911,-4.0,-119.27356
1041,34.91134162508438,-0.03703459686132247,35.04548702998384,-0.534019235453969,-4.0,-119.27356
1042,34.94487797630925,-0.06576531556264241,35.07902338120871,-0.7242145539384901,-4.0,-119.27356
1043,34.97841432753412,-0.05369586933729067,35.112559732433574,-0.8960245433945255,-4.0,-119.27356
1044,35.01195067875898,-0.011457458662605448,35.146096083658435,-0.9992914258380506,-4.0,-119.27356
1045,35.045487029983846,0.03618737971768166,35.1796324348833,-0.9727810636477371,-4.0,-119.27356
1046,35.07902338120871,0.07140905631848887,35.21316878610816,-0.768767330451434,-4.0,-119.27356
1047,35.112559732433574,0.09134548363214409,35.24670513733303,-0.3852269537299708,-4.0,-119.27356
1048,35.14609608365844,0.0951029717925147,35.2802414885579,0.11459162853228334,-4.0,-119.27356
1049,35.1796324348833,0.06249818943063266,35.31377783978276,0.6135150941995512,-4.0,-119.27356
1050,35.21316878610817,-0.04606699913952794,35.34731419100763,0.9834030213715421,-4.0,-119.27356
1051,35.24670513733303,-0.2523709430650222,35.38085054223249,1.1386246381877119,-4.0,-119.27356
1052,35.2802414885579,-0.5118015389559767,35.414386893457355,1.0699006676567964,-4.0,-119.27356
1053,35.313777839782766,-0.7075323907302716,35.44792324468222,0.8399572293880512,-4.0,-119.27356
1054,35.34731419100763,-0.7136237478326962,35.48145959590708,0.546338469463288,-4.0,-119.27356
1055,35.380850542232494,-0.4856105594103426,35.51499594713195,0.27534901838823034,-4.0,-119.27356
1056,35.41438689345736,-0.09854951075437031,35.54853229835682,0.07226498049260907,-4.0,-119.27356
1057,35.44792324468222,0.30826786807078493,35.58206864958168,-0.0615971479841049,-4.0,-119.27356
1058,35.48145959590709,0.6360284254922612,35.615605000806546,-0.1522597173211283,-4.0,-119.27356
1059,35.51499594713195,0.8906805246732404,35.64914135203141,-0.23284145364359232,-4.0,-119.27356
1060,35.54853229835682,1.153693680102759,35.682677703256275,-0.33108642218611534,-4.0,-119.27356
1061,35.582068649581686,1.4865754701548826,35.71621405448114,-0.46475365286134934,-4.0,-119.27356
1062,35.615605000806546,1.847842497383848,35.749750405706,-0.6374709585195395,-4.0,-119.27356
1063,35.649141352031414,2.087478753044422,35.78328675693087,-0.8301744405127922,-4.0,-119.27356
1064,35.68267770325628,2.0251420746469457,35.81682310815574,-0.992959813861647,-4.0,-119.27356
1065,35.71621405448114,1.5613292432985044,35.8503594593806,-1.0496334131578458,-4.0,-119.27356
1066,35.74975040570601,0.7503555682523216,35.883895810605466,-0.9237729842320953,-4.0,-119.27356
1067,35.78328675693087,-0.2123907678755769,35.91743216183033,-0.5801516796189148,-4.0,-119.27356
1068,35.81682310815574,-1.0836461745680614,35.950968513055194,-0.05894292850404593,-4.0,-119.27356
1069,35.850359459380606,-1.6891825901630422,35.98450486428006,0.5231250314209187,-4.0,-119.27356
1070,35.883895810605466,-1.992634622995946,36.01804121550492,1.0135518651501887,-4.0,-119.27356
1071,35.917432161830334,-2.0782131630760974,36.05157756672979,1.2882226937162522,-4.0,-119.27356
1072,35.950968513055194,-2.0671884649979986,36.08511391795465,1.303183420947065,-4.0,-119.27356
1073,35.98450486428006,-2.028862573127757,36.11865026917952,1.1052582545103906,-4.0,-119.27356
1074,36.01804121550493,-1.9438211588304335,36.152186620404386,0.7986072838035327,-4.0,-119.27356
1075,36.05157756672979,-1.7356321311782763,36.18572297162925,0.49007870988622915,-4.0,-119.27356
1076,36.08511391795466,-1.3400345412986032,36.219259322854114,0.24512565126443295,-4.0,-119.27356
1077,36.118650269179525,-0.7615226560995055,36.25279567407898,0.0748273478193349,-4.0,-119.27356
1078,36.152186620404386,-0.08303837922341538,36.28633202530384,-0.04693889368202882,-4.0,-119.27356
1079,36.185722971629254,0.5715388376449034,36.28633202530385,-0.04693889368205462,-3.0,-89.45517000000001
1080,36.219259322854114,1.0935268688054185,36.31986837652871,-0.1541763971522523,-3.0,-89.45517000000001
1081,36.25279567407898,1.4295272642064971,36.35340472775358,-0.26800668756845303,-3.0,-89.45517000000001
1082,36.28633202530385,1.5882369839981543,36.386941078978445,-0.39399069078304544,-3.0,-89.45517000000001
1083,36.31986837652871,1.6198814726520376,36.420477430203306,-0.5314759092996229,-3.0,-89.45517000000001
1084,36.35340472775358,1.5846277194985612,36.45401378142817,-0.6804879417768211,-3.0,-89.45517000000001
1085,36.38694107897844,1.5231733730134802,36.487550132653034,-0.8361017136285438,-3.0,-89.45517000000001
1086,36.420477430203306,1.4379732422311085,36.5210864838779,-0.973622441998254,-3.0,-89.45517000000001
1087,36.45401378142817,1.2925374013519413,36.55462283510277,-1.0396811849946677,-3.0,-89.45517000000001
1088,36.487550132653034,1.0320075402485005,36.58815918632763,-0.9644833105603534,-3.0,-89.45517000000001
1089,36.5210864838779,0.6183146242673739,36.6216955375525,-0.6967307483084059,-3.0,-89.45517000000001
1090,36.55462283510277,0.06477958312426481,36.655231888777365,-0.24361283888023444,-3.0,-89.45517000000001
1091,36.58815918632763,-0.5482582170790001,36.688768240002226,0.31162541085423723,-3.0,-89.45517000000001
1092,36.6216955375525,-1.092010168362314,36.72230459122709,0.8323764281259092,-3.0,-89.45517000000001
1093,36.65523188877736,-1.4413688303527343,36.755840942451954,1.1842678986162238,-3.0,-89.45517000000001
1094,36.688768240002226,-1.5341031427736542,36.78937729367682,1.2932526565173095,-3.0,-89.45517000000001
1095,36.72230459122709,-1.3972851708515877,36.15218662040439,0.7986072838034673,17.0,506.91263000000004
1096,36.755840942451954,-1.1210768271280773,36.18572297162925,0.49007870988622915,17.0,506.91263000000004
1097,36.78937729367682,-0.801521524761671,36.219259322854114,0.24512565126443295,17.0,506.91263000000004
1098,36.82291364490168,-0.49763998713888585,36.92352269857628,0.33187638021828164,-3.0,-89.45517000000001
1099,36.85644999612655,-0.22946307142828154,36.957059049801146,0.1333755911716733,-3.0,-89.45517000000001
1100,36.88998634735142,-0.002523229454219945,36.99059540102601,-0.008016742944847156,-3.0,-89.45517000000001
1101,36.92352269857628,0.17617480490356252,37.024131752250874,-0.12182950135746273,-3.0,-89.45517000000001
1102,36.957059049801146,0.30653941172232335,37.05766810347574,-0.23347029368668315,-3.0,-89.45517000000001
1103,36.99059540102601,0.41024777181192396,37.09120445470061,-0.35717862034635306,-3.0,-89.45517000000001
1104,37.024131752250874,0.5251353626874443,37.12474080592547,-0.5001028751717408,-3.0,-89.45517000000001
1105,37.05766810347574,0.67598870548574,37.15827715715034,-0.6648740857634087,-3.0,-89.45517000000001
1106,37.0912044547006,0.846338361149334,37.1918135083752,-0.8418320885543749,-3.0,-89.45517000000001
1107,37.12474080592547,0.977434350088274,37.225349859600065,-0.995362805076565,-3.0,-89.45517000000001
1108,37.15827715715034,0.9964911883115731,37.25888621082493,-1.0600558233404545,-3.0,-89.45517000000001
1109,37.1918135083752,0.8526745582361253,37.292422562049794,-0.9605279232606843,-3.0,-89.45517000000001
1110,37.225349859600065,0.5378875156779664,37.32595891327466,-0.6523500604347241,-3.0,-89.45517000000001
1111,37.25888621082493,0.0863475277778467,37.35949526449953,-0.1616388164551049,-3.0,-89.45517000000001
1112,37.292422562049794,-0.4375647293496059,37.39303161572439,0.4057305302468389,-3.0,-89.45517000000001
1113,37.32595891327466,-0.9510150954526434,37.42656796694926,0.8988856570098744,-3.0,-89.45517000000001
1114,37.35949526449952,-1.3590451799393224,37.46010431817412,1.1856564759119899,-3.0,-89.45517000000001
1115,37.39303161572439,-1.5618985563779049,37.493640669398985,1.2096572226351547,-3.0,-89.45517000000001
1116,37.42656796694926,-1.47711787151676,37.52717702062385,1.008778772735441,-3.0,-89.45517000000001
1117,37.46010431817412,-1.0811325256029476,37.56071337184871,0.6877411034099159,-3.0,-89.45517000000001
1118,37.493640669398985,-0.4498891578809817,37.59424972307358,0.3643315337185666,-3.0,-89.45517000000001
1119,37.527177020623846,0.2387830059922998,37.62778607429844,0.12015075916429149,-3.0,-89.45517000000001
1120,37.56071337184871,0.7631396781795418,37.66132242552331,-0.022130925141519365,-3.0,-89.45517000000001
1121,37.59424972307358,0.9566885120964332,37.69485877674818,-0.09180256684995639,-3.0,-89.45517000000001
1122,37.62778607429844,0.7940909060451147,37.72839512797304,-0.1449162323528174,-3.0,-89.45517000000001
1123,37.66132242552331,0.4089500442307244,37.761931479197905,-0.2355926781512975,-3.0,-89.45517000000001
1124,37.69485877674818,0.02631175716792146,37.79546783042277,-0.3930704647764977,-3.0,-89.45517000000001
1125,37.72839512797304,-0.15536915561754952,37.82900418164763,-0.6075818259153473,-3.0,-89.45517000000001
1126,37.761931479197905,-0.06504047059438184,37.8625405328725,-0.8268339260473093,-3.0,-89.45517000000001
1127,37.795467830422766,0.21584640426831886,37.89607688409736,-0.9669097856247907,-3.0,-89.45517000000001
1128,37.82900418164763,0.5132415071443911,37.92961323532223,-0.9404116703882367,-3.0,-89.45517000000001
1129,37.8625405328725,0.6599605214009971,37.9631495865471,-0.6964139688543137,-3.0,-89.45517000000001
1130,37.89607688409736,0.571890764522996,37.99668593777196,-0.2550189509047052,-3.0,-89.45517000000001
1131,37.92961323532223,0.2675367048689385,38.030222288996825,0.285435805221448,-3.0,-89.45517000000001
1132,37.96314958654709,-0.15925367037588095,38.063758640221685,0.779774120289898,-3.0,-89.45517000000001
1133,37.99668593777196,-0.5834624325297679,38.09729499144655,1.0945974706294062,-3.0,-89.45517000000001
1134,38.030222288996825,-0.8882935095502043,38.13083134267142,1.163745918053292,-3.0,-89.45517000000001
1135,38.063758640221685,-0.9940456003073469,38.16436769389628,1.0103068642985802,-3.0,-89.45517000000001
1136,38.09729499144655,-0.8771650181902394,38.19790404512115,0.7251513807230724,-3.0,-89.45517000000001
1137,38.13083134267142,-0.5767890408017183,38.23144039634602,0.4177010753317613,-3.0,-89.45517000000001
1138,38.16436769389628,-0.1821460420081578,38.26497674757088,0.16788465035763178,-3.0,-89.45517000000001
1139,38.19790404512115,0.20134051423289445,38.298513098795745,0.002177165155268492,-3.0,-89.45517000000001
1140,38.23144039634601,0.4955940677476607,38.332049450020605,-0.10130917792100926,-3.0,-89.45517000000001
1141,38.26497674757088,0.679325668399375,38.36558580124547,-0.18960929645871294,-3.0,-89.45517000000001
1142,38.298513098795745,0.7831256710135733,38.39912215247034,-0.30897817702970837,-3.0,-89.45517000000001
1143,38.332049450020605,0.8522338373626116,38.4326585036952,-0.48557962933116233,-3.0,-89.45517000000001
1144,38.36558580124547,0.9061450115389316,38.46619485492007,-0.7139331099816365,-3.0,-89.45517000000001
1145,38.39912215247033,0.9295662415431846,38.49973120614493,-0.9519006387364984,-3.0,-89.45517000000001
1146,38.4326585036952,0.8993881222993984,38.26497674757088,0.16788465035763178,5.0,149.09195
1147,38.46619485492007,0.8138442096520477,38.298513098795745,0.002177165155268492,5.0,149.09195
1148,38.49973120614493,0.6868662592285698,38.332049450020605,-0.10130917792100926,5.0,149.09195
1149,38.5332675573698,0.510170525642604,38.63387661104439,-0.523553613725722,-3.0,-89.45517000000001
1150,38.566803908594665,0.2276194421168504,38.66741296226926,0.04778292138398227,-3.0,-89.45517000000001
1151,38.600340259819525,-0.23464574772342928,38.66741296226925,0.04778292138385936,-2.0,-59.63678
1152,38.63387661104439,-0.8891660496435553,38.70094931349412,0.627892828553295,-2.0,-59.63678
1153,38.66741296226925,-1.6220765837588778,38.73448566471898,1.0656584238725697,-2.0,-59.63678
1154,38.70094931349412,-2.2093576660275733,38.76802201594385,1.2612809104839424,-2.0,-59.63678
1155,38.73448566471899,-2.422582893263635,38.80155836716872,1.2044594639415651,-2.0,-59.63678
1156,38.76802201594385,-2.158492370689673,38.600340259819525,-0.9463959486548374,5.0,149.09195
1157,38.80155836716872,-1.5022498213245248,38.600340259819525,-0.9463959486548374,6.0,178.91034000000002
1158,38.835094718393584,-0.6801844632563286,38.63387661104439,-0.523553613725722,6.0,178.91034000000002
1159,38.868631069618445,0.06278721499843506,38.93570377206817,0.18035413255194915,-2.0,-59.63678
1160,38.90216742084331,0.5757198553601254,38.96924012329304,0.04730347129279277,-2.0,-59.63678
1161,38.93570377206817,0.8357859848152994,39.0027764745179,-0.04790106077065317,-2.0,-59.63678
1162,38.96924012329304,0.9022679852967553,39.03631282574277,-0.14129438515781184,-2.0,-59.63678
1163,39.00277647451791,0.847394631374564,39.06984917696764,-0.25727344780502215,-2.0,-59.63678
1164,39.03631282574277,0.7241632534586361,39.1033855281925,-0.40670236595765763,-2.0,-59.63678
1165,39.06984917696764,0.5822740094371809,38.868631069618445,0.6622514680015062,6.0,178.91034000000002
1166,39.1033855281925,0.4913361842529439,38.902167420843305,0.3840910467157151,6.0,178.91034000000002
1167,39.136921879417365,0.5244895032049602,38.93570377206817,0.18035413255194915,6.0,178.91034000000002
1168,39.17045823064223,0.6999644194974898,38.96924012329304,0.04730347129279277,6.0,178.91034000000002
1169,39.20399458186709,0.9307067214121922,39.0027764745179,-0.04790106077065317,6.0,178.91034000000002
1170,39.23753093309196,1.0426527608303788,39.30460363554169,-0.7020303334785399,-2.0,-59.63678
1171,39.27106728431683,0.8742835895849568,39.338139986766556,-0.23846159020324967,-2.0,-59.63678
1172,39.30460363554169,0.3975176059059823,39.37167633799142,0.3163890655391738,-2.0,-59.63678
1173,39.338139986766556,-0.23442727888807866,39.405212689216285,0.8208356943029007,-2.0,-59.63678
1174,39.37167633799142,-0.7632259875304658,39.438749040441145,1.143968729040367,-2.0,-59.63678
1175,39.405212689216285,-0.9818968904195412,39.20399458186709,-0.9634863201424576,6.0,178.91034000000002
1176,39.43874904044115,-0.8591330273546928,39.23753093309196,-1.051726947839595,6.0,178.91034000000002
1177,39.47228539166601,-0.5388915855229173,39.27106728431682,-0.9795541341179628,6.0,178.91034000000002
1178,39.50582174289088,-0.21909533764562766,39.30460363554169,-0.7020303334785399,6.0,178.91034000000002
1179,39.53935809411574,-0.007998957576854376,39.33813998676655,-0.23846159020334784,6.0,178.91034000000002
1180,39.57289444534061,0.12903469585025523,39.37167633799142,0.3163890655391738,6.0,178.91034000000002
1181,39.606430796565476,0.29761715071776146,39.405212689216285,0.8208356943029007,6.0,178.91034000000002
1182,39.63996714779034,0.5465078325898282,39.438749040441145,1.143968729040367,6.0,178.91034000000002
1183,39.673503499015204,0.7950491690633685,39.47228539166601,1.2211309769841312,6.0,178.91034000000002
1184,39.70703985024007,0.8751490973719036,39.50582174289088,1.0757935987990428,6.0,178.91034000000002
1185,39.74057620146493,0.6521309828934696,39.53935809411574,0.7977835183401552,6.0,178.91034000000002
1186,39.7741125526898,0.1315733695892667,39.57289444534061,0.49435425402141564,6.0,178.91034000000002
1187,39.80764890391466,-0.5224565958651675,39.60643079656547,0.2436224639450582,6.0,178.91034000000002
1188,39.84118525513953,-1.0658341435948562,39.63996714779034,0.07282176709819624,6.0,178.91034000000002
1189,39.874721606364396,-1.2984434338433577,39.673503499015204,-0.03501612118612145,6.0,178.91034000000002
1190,39.90825795758926,-1.1652883143760158,39.707039850240065,-0.11847674782925915,6.0,178.91034000000002
1191,39.941794308814124,-0.7848134768774007,39.74057620146493,-0.2156636016600987,6.0,178.91034000000002
1192,39.975330660038985,-0.3885596125804425,39.77411255268979,-0.351334677019159,6.0,178.91034000000002
1193,40.00886701126385,-0.1953058239746519,39.80764890391466,-0.5314913758134191,6.0,178.91034000000002
1194,40.04240336248872,-0.28220556974757416,39.84118525513953,-0.7393421301324223,6.0,178.91034000000002
1195,40.07593971371358,-0.5329953971773456,39.87472160636439,-0.9312778417550256,6.0,178.91034000000002
1196,40.10947606493845,-0.7084501067160299,39.90825795758926,-1.0396239904579352,6.0,178.91034000000002
1197,40.143012416163316,-0.6027699858288602,39.941794308814124,-0.9910064247334923,6.0,178.91034000000002
1198,40.17654876738818,-0.1814189215546762,39.975330660038985,-0.7401112262041771,6.0,178.91034000000002
1199,40.210085118613044,0.39598843532919886,40.00886701126385,-0.3035845302042044,6.0,178.91034000000002
1200,40.243621469837905,0.8800800794093538,40.04240336248871,0.2292026543608655,6.0,178.91034000000002
1201,40.27715782106277,1.084475756363892,40.07593971371358,0.7225795835575779,6.0,178.91034000000002
1202,40.31069417228764,0.9836116526569432,40.37776687473737,-0.14023024166215783,-2.0,-59.63678
1203,40.3442305235125,0.7055859918271475,40.41130322596223,-0.24226434826317914,-2.0,-59.63678
1204,40.37776687473737,0.44534592405913864,40.444839577187096,-0.37581908372378153,-2.0,-59.63678
1205,40.411303225962236,0.3617807154992247,40.210085118613044,0.7690805095225308,6.0,178.91034000000002
1206,40.444839577187096,0.5115689754351509,40.243621469837905,0.4837120299570287,6.0,178.91034000000002
1207,40.478375928411964,0.8383422727015228,40.27715782106277,0.24075945441974664,6.0,178.91034000000002
1208,40.511912279636825,1.204409872741581,40.31069417228763,0.0679266786103419,6.0,178.91034000000002
1209,40.54544863086169,1.4390866610729403,40.3442305235125,-0.04796272560335749,6.0,178.91034000000002
1210,40.57898498208656,1.3867338103891935,40.64605768453629,-0.6064430485995478,-2.0,-59.63678
1211,40.61252133331142,0.9539210769850079,40.67959403576115,-0.16011820563454104,-2.0,-59.63678
1212,40.64605768453629,0.15379486809222906,40.713130386986016,0.3596327121343189,-2.0,-59.63678
1213,40.67959403576115,-0.8730107944525831,40.74666673821088,0.8206423313160358,-2.0,-59.63678
1214,40.713130386986016,-1.8867601345007543,41.18263930413413,-0.7425289895179863,-14.0,-417.45746
1215,40.746666738210884,-2.625850552664312,41.216175655358995,-0.9206632680296557,-14.0,-417.45746
1216,40.780203089435744,-2.8984288020186266,40.57898498208655,-0.9701851513464305,6.0,178.91034000000002
1217,40.81373944066061,-2.6459202210429007,40.61252133331142,-0.8852301793372855,6.0,178.91034000000002
1218,40.84727579188548,-1.9554371047457124,40.64605768453629,-0.6064430485995478,6.0,178.91034000000002
1219,40.88081214311034,-1.0214707941352001,40.67959403576115,-0.16011820563454104,6.0,178.91034000000002
1220,40.91434849433521,-0.07243855707528614,40.713130386986016,0.3596327121343189,6.0,178.91034000000002
1221,40.94788484556007,0.7098708028242351,40.74666673821088,0.8206423313160358,6.0,178.91034000000002
1222,40.981421196784936,1.2410887806486333,40.780203089435744,1.1061241267684288,6.0,178.91034000000002
1223,41.014957548009804,1.5297242779869438,40.81373944066061,1.1630823099184906,6.0,178.91034000000002
1224,41.048493899234664,1.6282116401623203,40.84727579188547,1.0187498132297963,6.0,178.91034000000002
1225,41.08203025045953,1.5829873227590923,40.88081214311034,0.757869938422602,6.0,178.91034000000002
1226,41.11556660168439,1.4200683670100593,40.9143484943352,0.47702497224217344,6.0,178.91034000000002
