frame_idx,t_rppg,rppg_n,t_gt_pair,ppg_n_pair,lag_samples,lag_frames
0,0.0,0.19571621479293996,0.23634779185322666,0.2579794657406102,-7.0,-207.32159000000001
1,0.033763970264746666,0.5203301704510092,0.27011176211797333,0.20891698746989676,-7.0,-207.32159000000001
2,0.06752794052949333,0.7602607496389152,0.30387573238272,0.2825733580916735,-7.0,-207.32159000000001
3,0.10129191079423999,0.8992912818143124,0.3376397026474667,0.35634796722130657,-7.0,-207.32159000000001
4,0.13505588105898667,0.9959649180563737,0.3714036729122133,0.3327179197524315,-7.0,-207.32159000000001
5,0.16881985132373334,1.1361781944005498,0.40516764317695997,0.18222737725176746,-7.0,-207.32159000000001
6,0.20258382158847998,1.3719125123456664,0.4389316134417066,-0.05921659425408421,-7.0,-207.32159000000001
7,0.23634779185322666,1.686825232687963,0.4726955837064533,-0.32790380643026773,-7.0,-207.32159000000001
8,0.27011176211797333,1.999355874476424,0.5064595539712,-0.5764977561587589,-7.0,-207.32159000000001
9,0.30387573238272,2.1946312278650972,0.5402235242359467,-0.7965952202780746,-7.0,-207.32159000000001
10,0.3376397026474667,2.172616223560017,0.5739874945006933,-1.006820083121321,-7.0,-207.32159000000001
11,0.3714036729122133,1.894769449502806,0.60775146476544,-1.2156060423803834,-7.0,-207.32159000000001
12,0.40516764317695997,1.4042593928801428,0.6415154350301866,-1.3850090289732302,-7.0,-207.32159000000001
13,0.43893161344170667,0.8021657748737714,0.6752794052949334,-1.424418765509981,-7.0,-207.32159000000001
14,0.4726955837064533,0.1883208068446509,0.70904337555968,-1.2274006162559967,-7.0,-207.32159000000001
15,0.5064595539712,-0.3969946521937926,0.7428073458244266,-0.7374537259504405,-7.0,-207.32159000000001
16,0.5402235242359467,-0.9879315358617817,0.7765713160891733,-0.004864381373740108,-7.0,-207.32159000000001
17,0.5739874945006933,-1.646537811361524,0.8103352863539199,0.8055991358587039,-7.0,-207.32159000000001
18,0.60775146476544,-2.3805484277504094,0.8440992566186666,1.4712308575623876,-7.0,-207.32159000000001
19,0.6415154350301867,-3.084053571264074,0.8778632268834133,1.8076809818811361,-7.0,-207.32159000000001
20,0.6752794052949334,-3.5531755423313713,0.91162719714816,1.7530477547409389,-7.0,-207.32159000000001
21,0.70904337555968,-3.5813265870132196,0.9453911674129066,1.3925774963989708,-7.0,-207.32159000000001
22,0.7428073458244266,-3.0816516057202135,0.9791551376776533,0.9110712774698763,-7.0,-207.32159000000001
23,0.7765713160891733,-2.1600272317841642,1.0129191079424,0.5009566151510209,-7.0,-207.32159000000001
24,0.8103352863539199,-1.087655219557926,1.0466830782071466,0.27624555607677564,-7.0,-207.32159000000001
25,0.8440992566186667,-0.1810549481414137,1.0804470484718933,0.23523625420014813,-7.0,-207.32159000000001
26,0.8778632268834133,0.3453056751961452,1.11421101873664,0.2848654385816433,-7.0,-207.32159000000001
27,0.91162719714816,0.4693503500861641,1.1479749890013866,0.3055573345214727,-7.0,-207.32159000000001
28,0.9453911674129066,0.3482131371856514,1.1817389592661334,0.21627827697376217,-7.0,-207.32159000000001
29,0.9791551376776533,0.2232330027447965,1.21550292953088,0.004758331992495696,-7.0,-207.32159000000001
30,1.0129191079424,0.30702061388351815,1.2492668997956267,-0.2873372864047266,-7.0,-207.32159000000001
31,1.0466830782071466,0.7058641955012397,1.2830308700603732,-0.6058847373100977,-7.0,-207.32159000000001
32,1.0804470484718933,1.3930695046960908,1.31679484032512,-0.9189876567542163,-7.0,-207.32159000000001
33,1.11421101873664,2.2227580253077703,1.3505588105898667,-1.2190726547005204,-7.0,-207.32159000000001
34,1.1479749890013866,2.9705422433708386,1.3843227808546132,-1.4923199615769323,-7.0,-207.32159000000001
35,1.1817389592661334,3.3934913028921385,1.41808675111936,-1.6826940113836049,-7.0,-207.32159000000001
36,1.21550292953088,3.301670198563688,1.4518507213841065,-1.6872576910917267,-7.0,-207.32159000000001
37,1.2492668997956267,2.6259492007180434,1.4856146916488533,-1.4009692171022488,-7.0,-207.32159000000001
38,1.2830308700603734,1.460397813379409,1.5193786619136,-0.791710311297546,-7.0,-207.32159000000001
39,1.31679484032512,0.058108087614974,1.5531426321783466,0.04422279290903991,-7.0,-207.32159000000001
40,1.3505588105898667,-1.2317822980780144,1.5869066024430933,0.8932241108161689,-7.0,-207.32159000000001
41,1.3843227808546132,-2.0767698694810792,1.6206705727078399,1.5090512222756807,-7.0,-207.32159000000001
42,1.41808675111936,-2.283673901004835,1.6544345429725866,1.7271778980034205,-7.0,-207.32159000000001
43,1.4518507213841065,-1.873930440945296,1.6881985132373332,1.5417052804119038,-7.0,-207.32159000000001
44,1.4856146916488533,-1.0707473431777903,1.72196248350208,1.0999518907355001,-7.0,-207.32159000000001
45,1.5193786619136,-0.2016937355151338,1.7557264537668267,0.6206136709717122,-7.0,-207.32159000000001
46,1.5531426321783466,0.4367978731695186,1.7894904240315732,0.28512245969516103,-7.0,-207.32159000000001
47,1.5869066024430933,0.6906395348142526,1.82325439429632,0.162048502616682,-7.0,-207.32159000000001
48,1.6206705727078399,0.5895261546360222,1.8570183645610665,0.19915370341150507,-7.0,-207.32159000000001
49,1.6544345429725866,0.30805885833199614,1.8907823348258133,0.27620729505058833,-7.0,-207.32159000000001
50,1.6881985132373334,0.06857677995488846,1.92454630509056,0.2797156866521942,-7.0,-207.32159000000001
51,1.72196248350208,0.029021819340895035,1.9583102753553066,0.15543234502716477,-7.0,-207.32159000000001
52,1.7557264537668267,0.20724154970579392,1.9920742456200533,-0.0843455951710067,-7.0,-207.32159000000001
53,1.7894904240315732,0.48024698492800433,2.0258382158848,-0.3901443810530868,-7.0,-207.32159000000001
54,1.82325439429632,0.6594184493407567,2.059602186149547,-0.7117249763801088,-7.0,-207.32159000000001
55,1.8570183645610667,0.5981952870737657,2.0933661564142936,-1.0135870073735558,-7.0,-207.32159000000001
56,1.8907823348258133,0.2681274839226839,2.12713012667904,-1.262680298048081,-7.0,-207.32159000000001
57,1.92454630509056,-0.23996112984263848,2.1608940969437866,-1.4062106635599745,-7.0,-207.32159000000001
58,1.9583102753553066,-0.7823849775154194,2.1946580672085334,-1.3679973851229146,-7.0,-207.32159000000001
59,1.9920742456200533,-1.245281097708217,2.22842203747328,-1.0793014193050332,-7.0,-207.32159000000001
60,2.0258382158848,-1.5880245439411584,2.262186007738027,-0.5315486523331077,-7.0,-207.32159000000001
61,2.059602186149547,-1.8276082174528017,2.2959499780027737,0.18539625721870903,-7.0,-207.32159000000001
62,2.093366156414293,-1.9882302248542738,2.32971394826752,0.8944412386656382,-7.0,-207.32159000000001
63,2.12713012667904,-2.0596974734561924,2.3634779185322667,1.3976011879851609,-7.0,-207.32159000000001
64,2.1608940969437866,-1.9945330181741372,2.3972418887970135,1.5648933470610278,-7.0,-207.32159000000001
65,2.1946580672085334,-1.7430200220311534,2.4310058590617603,1.394419679994802,-7.0,-207.32159000000001
66,2.22842203747328,-1.3007865376479748,2.464769829326507,1.0077627334620105,-7.0,-207.32159000000001
67,2.2621860077380265,-0.7359726244825716,2.4985337995912533,0.5840859509444705,-7.0,-207.32159000000001
68,2.2959499780027732,-0.17201153882923814,2.532297769856,0.2720445707925936,-7.0,-207.32159000000001
69,2.32971394826752,0.2730646418914405,2.566061740120747,0.12813580435996733,-7.0,-207.32159000000001
70,2.3634779185322667,0.5567745685371625,2.5998257103854936,0.11046847709453794,-7.0,-207.32159000000001
71,2.3972418887970135,0.742013479163227,2.6335896806502403,0.12312397117885535,-7.0,-207.32159000000001
72,2.43100585906176,0.9588449472208458,2.6673536509149867,0.07926484325789714,-7.0,-207.32159000000001
73,2.4647698293265066,1.3159942312546966,2.7011176211797334,-0.05463462433044754,-7.0,-207.32159000000001
74,2.4985337995912533,1.8142743582099146,2.73488159144448,-0.25468971505168286,-7.0,-207.32159000000001
75,2.532297769856,2.318817504504946,2.768645561709227,-0.4701898404402495,-7.0,-207.32159000000001
76,2.566061740120747,2.6208202715473488,2.8024095319739737,-0.6630335798026246,-7.0,-207.32159000000001
77,2.599825710385493,2.56700267341874,2.83617350223872,-0.8276188183952276,-7.0,-207.32159000000001
78,2.63358968065024,2.1775671269483494,2.8699374725034668,-0.9783879941489961,-7.0,-207.32159000000001
79,2.6673536509149867,1.6584795720074759,2.9037014427682135,-1.1157784387606287,-7.0,-207.32159000000001
80,2.7011176211797334,1.2762214210278824,2.9374654130329603,-1.1980636445904433,-7.0,-207.32159000000001
81,2.7348815914444797,1.1706375624743535,2.9712293832977066,-1.145226738075448,-7.0,-207.32159000000001
82,2.7686455617092265,1.2443058861166192,3.0049933535624533,-0.8806316376743032,-7.0,-207.32159000000001
83,2.8024095319739732,1.2208941132180264,3.0387573238272,-0.388528151120112,-7.0,-207.32159000000001
84,2.83617350223872,0.8392841504961955,3.072521294091947,0.25074660826102785,-7.0,-207.32159000000001
85,2.8699374725034668,0.0443082446852372,3.1062852643566936,0.8768826945970014,-7.0,-207.32159000000001
86,2.903701442768213,-0.9654767844778086,3.14004923462144,1.31496805183839,-7.0,-207.32159000000001
87,2.93746541303296,-1.8643795810514228,3.1738132048861867,1.4555329051038248,-7.0,-207.32159000000001
88,2.9712293832977066,-2.4003022706549078,3.2075771751509334,1.303709886241245,-7.0,-207.32159000000001
89,3.0049933535624533,-2.5219872531483114,3.24134114541568,0.9701877042286243,-7.0,-207.32159000000001
90,3.0387573238272,-2.3574167742728087,3.275105115680427,0.6111195962683463,-7.0,-207.32159000000001
91,3.0725212940919464,-2.0887526849251605,3.3088690859451733,0.35220418499844397,-7.0,-207.32159000000001
92,3.106285264356693,-1.8326114438309322,3.34263305620992,0.2376217255200481,-7.0,-207.32159000000001
93,3.14004923462144,-1.6017898505072024,3.3763970264746668,0.22679903825298092,-7.0,-207.32159000000001
94,3.1738132048861867,-1.346152484058631,3.4101609967394135,0.23378943454158002,-7.0,-207.32159000000001
95,3.2075771751509334,-1.0191560244565654,3.4439249670041603,0.18212187671280824,-7.0,-207.32159000000001
96,3.2413411454156797,-0.6189584259565083,3.4776889372689066,0.043459394338921674,-7.0,-207.32159000000001
97,3.2751051156804265,-0.18636440226166545,3.5452168777983997,-0.37400114941044255,-8.0,-236.93896
98,3.3088690859451733,0.2258042203989489,3.5789808480631464,-0.5660384858144839,-8.0,-236.93896
99,3.34263305620992,0.5823322221027178,3.612744818327893,-0.7297544640485871,-8.0,-236.93896
100,3.3763970264746668,0.8707790277120394,3.64650878859264,-0.8850103576761928,-8.0,-236.93896
101,3.410160996739413,1.0812075762406588,3.6802727588573863,-1.0436731789361207,-8.0,-236.93896
102,3.44392496700416,1.1829974862961259,3.3763970264746663,0.22679903825298106,2.0,59.23474
103,3.4776889372689066,1.1269710497567322,2.9712293832977066,-1.145226738075448,15.0,444.26055
104,3.5114529075336534,0.8815970717216423,3.0049933535624533,-0.8806316376743032,15.0,444.26055
105,3.5452168777984,0.4790869991328366,3.0387573238272,-0.388528151120112,15.0,444.26055
106,3.5789808480631464,0.027544625420076484,3.0725212940919464,0.25074660826101963,15.0,444.26055
107,3.612744818327893,-0.33553959911530834,3.8828565804458663,0.6570801356614532,-8.0,-236.93896
108,3.64650878859264,-0.5213027765278709,3.916620550710613,1.1911294867895397,-8.0,-236.93896
109,3.6802727588573867,-0.5355310139365794,3.578980848063147,-0.566038485814486,3.0,88.85211000000001
110,3.7140367291221335,-0.45286664551787265,3.6127448183278936,-0.7297544640485891,3.0,88.85211000000001
111,3.7478006993868798,-0.34481953865042014,3.64650878859264,-0.8850103576761928,3.0,88.85211000000001
112,3.7815646696516265,-0.22706504160330368,3.6802727588573867,-1.0436731789361227,3.0,88.85211000000001
113,3.8153286399163733,-0.06705725771393012,3.7140367291221335,-1.1762802413624944,3.0,88.85211000000001
114,3.84909261018112,0.16543762110137844,3.74780069938688,-1.2052403827569915,3.0,88.85211000000001
115,3.882856580445867,0.45564380053610287,3.781564669651627,-1.0376803964978103,3.0,88.85211000000001
116,3.916620550710613,0.7428633555310549,3.8153286399163733,-0.6247175180505503,3.0,88.85211000000001
117,3.95038452097536,0.9544737442743614,3.84909261018112,-0.011707453176563338,3.0,88.85211000000001
118,3.9841484912401066,1.0435241761369396,3.882856580445867,0.657080135661462,3.0,88.85211000000001
119,4.017912461504853,1.0039642736856855,4.288024223622826,-0.14993688387412393,-8.0,-236.93896
120,4.0516764317696,0.8597713660381886,4.321788193887573,-0.3670470665424306,-8.0,-236.93896
121,4.085440402034346,0.6457114212267643,4.321788193887573,-0.3670470665424306,-7.0,-207.32159000000001
122,4.119204372299094,0.4017898049618467,4.3555521641523205,-0.5844669185015051,-7.0,-207.32159000000001
123,4.15296834256384,0.18275633132290367,4.389316134417067,-0.7798036558608191,-7.0,-207.32159000000001
124,4.186732312828586,0.05715438281426555,4.085440402034346,0.2951271840222517,3.0,88.85211000000001
125,4.2204962830933335,0.07252216070353067,4.119204372299094,0.11992073325018938,3.0,88.85211000000001
126,4.25426025335808,0.20123400374452183,4.15296834256384,0.08835999650246718,3.0,88.85211000000001
127,4.288024223622827,0.31680477369379284,4.186732312828587,0.11763949024300649,3.0,88.85211000000001
128,4.321788193887573,0.24091862527359226,4.186732312828586,0.11763949024300659,4.0,118.46948
129,4.35555216415232,-0.15218963349898648,4.220496283093333,0.11409727470055749,4.0,118.46948
130,4.389316134417067,-0.8400104556698615,4.625663926270294,0.4495413664867301,-7.0,-207.32159000000001
131,4.423080104681813,-1.6345937064220901,4.65942789653504,0.979908266615744,-7.0,-207.32159000000001
132,4.45684407494656,-2.2628163833277264,4.693191866799787,1.2905837783935243,-7.0,-207.32159000000001
133,4.490608045211307,-2.4976083557187763,4.7269558370645335,1.3153653633812612,-7.0,-207.32159000000001
134,4.524372015476053,-2.262934216402312,4.76071980732928,1.1001915090505714,-7.0,-207.32159000000001
135,4.5581359857408,-1.6562398974576185,4.794483777594027,0.7740566579135034,-7.0,-207.32159000000001
136,4.5918999560055465,-0.8845675226894525,4.828247747858773,0.4797672316317757,-7.0,-207.32159000000001
137,4.625663926270294,-0.15913306440125558,4.8620117181235205,0.3051703578534897,-7.0,-207.32159000000001
138,4.65942789653504,0.39064846442991424,4.895775688388267,0.2512085991576837,-7.0,-207.32159000000001
139,4.693191866799786,0.74486853840228,4.929539658653013,0.2489731877081423,-7.0,-207.32159000000001
140,4.7269558370645335,0.964249422868302,4.96330362891776,0.21025246377269988,-7.0,-207.32159000000001
141,4.76071980732928,1.1357569517936592,4.65942789653504,0.979908266615744,3.0,88.85211000000001
142,4.794483777594027,1.3258062807073994,4.693191866799787,1.2905837783935243,3.0,88.85211000000001
143,4.828247747858773,1.5551654890052893,4.7269558370645335,1.3153653633812612,3.0,88.85211000000001
144,4.86201171812352,1.7913300890982167,5.0983595099767465,-0.5996055940222662,-7.0,-207.32159000000001
145,4.895775688388267,1.9539093166302657,5.132123480241494,-0.7430990806796902,-7.0,-207.32159000000001
146,4.929539658653013,1.9397193643360435,5.16588745050624,-0.8234307752644028,-7.0,-207.32159000000001
147,4.96330362891776,1.6719629512443435,5.199651420770987,-0.8818980210977165,-7.0,-207.32159000000001
148,4.997067599182507,1.1534596696895485,5.26717936130048,-1.0400806633376944,-8.0,-236.93896
149,5.030831569447253,0.4844037380595948,5.300943331565226,-1.0748720615574836,-8.0,-236.93896
150,5.064595539712,-0.1775060642563925,5.334707301829973,-0.9696748464661726,-8.0,-236.93896
151,5.0983595099767465,-0.6918700336761963,4.997067599182507,0.08024533702668574,3.0,88.85211000000001
152,5.132123480241494,-0.9959177043961039,5.030831569447254,-0.13605411554341953,3.0,88.85211000000001
153,5.16588745050624,-1.1181513338496059,5.064595539712,-0.3846090346273739,3.0,88.85211000000001
154,5.199651420770986,-1.1492579893698036,5.0983595099767465,-0.5996055940222662,3.0,88.85211000000001
155,5.2334153910357335,-1.1924191385762044,5.132123480241494,-0.7430990806796902,3.0,88.85211000000001
156,5.26717936130048,-1.3135639819127294,5.16588745050624,-0.8234307752644028,3.0,88.85211000000001
157,5.300943331565226,-1.5099321626249091,5.199651420770986,-0.8818980210977146,3.0,88.85211000000001
158,5.334707301829973,-1.7129613151724805,5.2334153910357335,-0.9557215716713542,3.0,88.85211000000001
159,5.36847127209472,-1.825962595615128,5.26717936130048,-1.0400806633376944,3.0,88.85211000000001
160,5.402235242359467,-1.773496142985268,5.300943331565227,-1.074872061557481,3.0,88.85211000000001
161,5.435999212624213,-1.5313420494260244,5.334707301829973,-0.9696748464661726,3.0,88.85211000000001
162,5.4697631828889595,-1.1244122262386147,5.36847127209472,-0.6576639683310674,3.0,88.85211000000001
163,5.503527153153707,-0.6060957441382514,5.402235242359467,-0.14824424183425663,3.0,88.85211000000001
164,5.537291123418453,-0.03907952628906714,5.435999212624213,0.45628947435580386,3.0,88.85211000000001
165,5.5710550936832,0.5164149325833037,5.46976318288896,0.9961004082894069,3.0,88.85211000000001
166,5.6048190639479465,1.0114958064854818,5.503527153153707,1.3250737375268649,3.0,88.85211000000001
167,5.638583034212693,1.413978707277756,5.537291123418453,1.37804458904651,3.0,88.85211000000001
168,5.67234700447744,1.7052537725459902,5.5710550936832,1.1958782518558682,3.0,88.85211000000001
169,5.706110974742186,1.8728984397672102,5.6048190639479465,0.8964452620044276,3.0,88.85211000000001
170,5.7398749450069335,1.912047947060678,5.638583034212694,0.6112714466793379,3.0,88.85211000000001
171,5.77363891527168,1.8383601618185483,5.67234700447744,0.4244498923172703,3.0,88.85211000000001
172,5.807402885536426,1.6952031855605292,5.706110974742186,0.3444412175455989,3.0,88.85211000000001
173,5.841166855801173,1.5352168174070715,5.7398749450069335,0.31788435863836256,3.0,88.85211000000001
174,5.87493082606592,1.3810824353503999,5.77363891527168,0.27175481733975965,3.0,88.85211000000001
175,5.908694796330667,1.1969797418442594,5.807402885536427,0.15794180343274247,3.0,88.85211000000001
176,5.942458766595413,0.9005619222250998,5.841166855801173,-0.02323798709790462,3.0,88.85211000000001
177,5.9762227368601595,0.41616703527443144,5.87493082606592,-0.23032835738563448,3.0,88.85211000000001
178,6.009986707124907,-0.26093366238451676,5.908694796330667,-0.41142363714698044,3.0,88.85211000000001
179,6.043750677389653,-1.0310329177505677,5.942458766595413,-0.5386640723361877,3.0,88.85211000000001
180,6.0775146476544,-1.7147675217959164,5.97622273686016,-0.625231560277588,3.0,88.85211000000001
181,6.1112786179191465,-2.129888551575231,6.009986707124907,-0.7132561713394472,3.0,88.85211000000001
182,6.145042588183893,-2.180024610555812,6.043750677389653,-0.837970467823478,3.0,88.85211000000001
183,6.17880655844864,-1.9048765116797313,6.0775146476544,-0.9892891824870338,3.0,88.85211000000001
184,6.212570528713386,-1.4608911642661793,6.1112786179191465,-1.097430109207255,3.0,88.85211000000001
185,6.2463344989781335,-1.038635809749865,6.145042588183894,-1.0586192299802148,3.0,88.85211000000001
186,6.28009846924288,-0.7593615326600128,6.17880655844864,-0.7932147423863495,3.0,88.85211000000001
187,6.313862439507626,-0.6113994554913301,6.212570528713386,-0.30461986732471924,3.0,88.85211000000001
188,6.347626409772373,-0.47081582383826814,6.2463344989781335,0.29975149080799385,3.0,88.85211000000001
189,6.38139038003712,-0.19908461825632837,6.28009846924288,0.845416801530157,3.0,88.85211000000001
190,6.415154350301867,0.24592812615659707,6.313862439507627,1.170041190283654,3.0,88.85211000000001
191,6.448918320566613,0.7647933881514839,6.347626409772373,1.200712962872647,3.0,88.85211000000001
192,6.4826822908313595,1.1719536132848234,6.38139038003712,0.9845869178803893,3.0,88.85211000000001
193,6.516446261096107,1.3136428871399906,6.415154350301867,0.6567513672705946,3.0,88.85211000000001
194,6.550210231360853,1.1660418598704225,6.415154350301866,0.6567513672706032,4.0,118.46948
195,6.5839742016256,0.8488895666782119,6.448918320566613,0.366645869017532,4.0,118.46948
196,6.6177381718903465,0.5502731180121307,6.4826822908313595,0.2061060114453825,4.0,118.46948
197,6.651502142155093,0.4147426429073421,6.550210231360853,0.20831346533063264,3.0,88.85211000000001
198,6.68526611241984,0.4643277684557098,6.5839742016256,0.21125164827267193,3.0,88.85211000000001
199,6.719030082684586,0.5956630989668813,6.6177381718903465,0.12940394691101964,3.0,88.85211000000001
200,6.7527940529493335,0.6466097920729416,6.651502142155094,-0.035070596218819056,3.0,88.85211000000001
201,6.78655802321408,0.4858650064362624,6.68526611241984,-0.2342809287165413,3.0,88.85211000000001
202,6.820321993478826,0.07485287339543034,7.056669785332053,0.6832331491231612,-7.0,-207.32159000000001
203,6.854085963743573,-0.520337247210032,7.0904337555968,1.051035325819992,-7.0,-207.32159000000001
204,6.88784993400832,-1.1566230882691242,7.1241977258615465,1.1792341400305038,-7.0,-207.32159000000001
205,6.921613904273067,-1.6595863355063503,7.157961696126294,1.0616323107281391,-7.0,-207.32159000000001
206,6.955377874537813,-1.8742881940706633,7.19172566639104,0.7859695331229601,-7.0,-207.32159000000001
207,6.9891418448025595,-1.715849820712939,7.225489636655786,0.48510828869216144,-7.0,-207.32159000000001
208,7.022905815067307,-1.2076985150726451,7.259253606920534,0.2701660109501851,-7.0,-207.32159000000001
209,7.056669785332053,-0.48606164768576304,7.29301757718528,0.18234173625491598,-7.0,-207.32159000000001
210,7.0904337555968,0.24377192977823123,7.326781547450027,0.18627497288827127,-7.0,-207.32159000000001
211,7.1241977258615465,0.7884007341765781,7.360545517714773,0.20297338207304808,-7.0,-207.32159000000001
212,7.157961696126293,1.0460562047225135,7.39430948797952,0.1597619822265768,-7.0,-207.32159000000001
213,7.19172566639104,1.0397047042292202,7.428073458244267,0.028834521521114775,-7.0,-207.32159000000001
214,7.225489636655786,0.883755448224583,7.428073458244266,0.028834521521118206,-6.0,-177.70422000000002
215,7.259253606920534,0.7099206629023839,7.461837428509013,-0.16417207457988134,-6.0,-177.70422000000002
216,7.29301757718528,0.6043112809391975,7.4956013987737595,-0.3620702117296768,-6.0,-177.70422000000002
217,7.326781547450026,0.5887944835591711,7.529365369038506,-0.5130893092604087,-6.0,-177.70422000000002
218,7.360545517714773,0.6373811652259955,7.563129339303253,-0.6012192166767734,-6.0,-177.70422000000002
219,7.39430948797952,0.6998213155697228,7.596893309567999,-0.653016918537968,-6.0,-177.70422000000002
220,7.428073458244267,0.7205152707299425,7.664421250097494,-0.8238199194289452,-7.0,-207.32159000000001
221,7.461837428509013,0.6586035613136677,7.69818522036224,-0.9564957134852787,-7.0,-207.32159000000001
222,7.4956013987737595,0.5088571851148384,7.731949190626986,-1.040365453537542,-7.0,-207.32159000000001
223,7.529365369038507,0.30594296767138124,7.765713160891734,-0.9755419141041499,-7.0,-207.32159000000001
224,7.563129339303253,0.09729671750980762,7.765713160891733,-0.9755419141041516,-6.0,-177.70422000000002
225,7.596893309568,-0.10158534623889265,7.79947713115648,-0.6926432162524986,-6.0,-177.70422000000002
226,7.6306572798327466,-0.33028653577826883,7.833241101421226,-0.20372486588942024,-6.0,-177.70422000000002
227,7.664421250097493,-0.6551638079459722,7.8670050716859725,0.3849542726560418,-6.0,-177.70422000000002
228,7.69818522036224,-1.1010622412609012,7.90076904195072,0.9116648573966705,-6.0,-177.70422000000002
229,7.731949190626986,-1.5937666730288766,7.934533012215466,1.2314662835929806,-6.0,-177.70422000000002
230,7.765713160891734,-1.965928507580706,7.968296982480213,1.2821233796570903,-6.0,-177.70422000000002
231,7.79947713115648,-2.036736614128217,8.00206095274496,1.1071467227863554,-6.0,-177.70422000000002
232,7.833241101421226,-1.7188096854528983,8.035824923009706,0.8255275389894343,-6.0,-177.70422000000002
233,7.867005071685973,-1.0812055602849913,8.069588893274453,0.5682724614954976,-6.0,-177.70422000000002
234,7.90076904195072,-0.3265044450309439,8.1033528635392,0.41758128420480206,-6.0,-177.70422000000002
235,7.934533012215467,0.3025065596036064,8.137116833803947,0.37851643092462967,-6.0,-177.70422000000002
236,7.968296982480213,0.6310874114470526,8.170880804068693,0.3922145065595577,-6.0,-177.70422000000002
237,8.00206095274496,0.6209605201014694,8.20464477433344,0.3777221847948096,-6.0,-177.70422000000002
238,8.035824923009706,0.37316208401775813,8.238408744598186,0.2777886565606883,-6.0,-177.70422000000002
239,8.069588893274453,0.07356255868969852,8.272172714862933,0.08613035719049719,-6.0,-177.70422000000002
240,8.1033528635392,-0.08744616824841384,8.30593668512768,-0.15420182601325091,-6.0,-177.70422000000002
241,8.137116833803946,0.014796175815160151,8.339700655392425,-0.37720172508789374,-6.0,-177.70422000000002
242,8.170880804068693,0.40118686758245603,8.373464625657173,-0.5303186451562777,-6.0,-177.70422000000002
243,8.20464477433344,0.9869037885853056,8.1033528635392,0.41758128420480206,3.0,88.85211000000001
244,8.238408744598187,1.6103603941275464,8.137116833803947,0.37851643092462967,3.0,88.85211000000001
245,8.272172714862933,2.085974457136334,8.170880804068693,0.3922145065595577,3.0,88.85211000000001
246,8.30593668512768,2.2678557632219416,8.20464477433344,0.3777221847948096,3.0,88.85211000000001
247,8.339700655392427,2.1017959933929182,8.272172714862934,0.08613035719048455,2.0,59.23474
248,8.373464625657173,1.6410057140181828,8.30593668512768,-0.15420182601325091,2.0,59.23474
249,8.40722859592192,1.014402391107781,8.6098124175104,-1.074419588797876,-6.0,-177.70422000000002
250,8.440992566186667,0.3605316120536152,8.677340358039894,-0.34818073672483074,-7.0,-207.32159000000001
251,8.474756536451412,-0.23641329613957718,8.71110432830464,0.2814286057794256,-7.0,-207.32159000000001
252,8.50852050671616,-0.7663563294242178,8.744868298569386,0.8723980499807353,-7.0,-207.32159000000001
253,8.542284476980907,-1.2530326635687696,8.778632268834134,1.2448582710184193,-7.0,-207.32159000000001
254,8.576048447245654,-1.6854279370043466,8.81239623909888,1.3060750333542839,-7.0,-207.32159000000001
255,8.6098124175104,-1.9822524296173838,8.846160209363626,1.0906285142392822,-7.0,-207.32159000000001
256,8.643576387775147,-2.029108943152044,8.879924179628373,0.7344949453137861,-7.0,-207.32159000000001
257,8.677340358039894,-1.7672292951340058,8.609812417510401,-1.0744195887978634,2.0,59.23474
258,8.71110432830464,-1.264256370270618,8.643576387775147,-0.8343951037195476,2.0,59.23474
259,8.744868298569386,-0.7049988502139038,8.677340358039894,-0.34818073672483074,2.0,59.23474
260,8.778632268834134,-0.2973439760840231,8.711104328304641,0.28142860577945666,2.0,59.23474
261,8.812396239098879,-0.15068833856686106,8.744868298569386,0.8723980499807353,2.0,59.23474
262,8.846160209363626,-0.20821919399737465,8.778632268834134,1.2448582710184193,2.0,59.23474
263,8.879924179628373,-0.28334449223437075,9.1162719714816,-0.005748308164450274,-7.0,-207.32159000000001
264,8.91368814989312,-0.18203043424770757,9.150035941746347,-0.21285996860859302,-7.0,-207.32159000000001
265,8.947452120157866,0.16659501467525278,8.913688149893119,0.4008550588142223,1.0,29.61737
266,8.981216090422613,0.656252057677651,8.947452120157866,0.2010333941216829,1.0,29.61737
267,9.01498006068736,1.062859860513214,8.981216090422613,0.15212587614832743,1.0,29.61737
268,9.048744030952106,1.1838663456998866,9.014980060687359,0.18820459455175087,1.0,29.61737
269,9.082508001216853,0.9721178646755785,9.048744030952106,0.21143428341737885,1.0,29.61737
270,9.1162719714816,0.5742508193461107,9.082508001216853,0.1504523960345428,1.0,29.61737
271,9.150035941746346,0.2383873145339149,9.116271971481599,-0.005748308164442051,1.0,29.61737
272,9.183799912011093,0.1458250210237616,9.150035941746346,-0.2128599686085828,1.0,29.61737
273,9.21756388227584,0.28306367690677003,9.453911674129067,-0.42966654469387966,-7.0,-207.32159000000001
274,9.251327852540587,0.44852106768098915,9.487675644393814,0.06197755038889513,-7.0,-207.32159000000001
275,9.285091822805333,0.39323805362164316,9.52143961465856,0.602673019249094,-7.0,-207.32159000000001
276,9.31885579307008,-0.0008867659175467459,9.555203584923307,1.0319021740348757,-7.0,-207.32159000000001
277,9.352619763334827,-0.6274405462447397,9.588967555188054,1.2231704889429444,-7.0,-207.32159000000001
278,9.386383733599573,-1.20895915881465,9.656495495717547,0.8762620994957178,-8.0,-236.93896
279,9.42014770386432,-1.4601476886123614,9.386383733599573,-0.8799736611106583,1.0,29.61737
280,9.453911674129067,-1.252587918155486,9.42014770386432,-0.7537157301218292,1.0,29.61737
281,9.487675644393812,-0.6771986992410778,9.453911674129065,-0.42966654469389676,1.0,29.61737
282,9.52143961465856,0.02572058232012583,9.487675644393812,0.06197755038886668,1.0,29.61737
283,9.555203584923307,0.6107211130583124,9.52143961465856,0.602673019249094,1.0,29.61737
284,9.588967555188054,0.947968465237881,9.555203584923307,1.0319021740348757,1.0,29.61737
285,9.6227315254528,1.0546893916916558,9.588967555188052,1.2231704889429345,1.0,29.61737
286,9.656495495717547,1.0396335577247997,9.6227315254528,1.1457702549196438,1.0,29.61737
287,9.690259465982294,1.011994895491828,9.656495495717547,0.8762620994957178,1.0,29.61737
288,9.72402343624704,1.011821123611076,9.690259465982292,0.5543142234477095,1.0,29.61737
289,9.757787406511786,0.9954933730629495,9.757787406511786,0.20446188677410365,0.0,0.0
290,9.791551376776534,0.8792808222952152,9.791551376776534,0.2119814820591439,0.0,0.0
291,9.825315347041279,0.613634503923187,9.825315347041279,0.25016615896554417,0.0,0.0
292,9.859079317306026,0.23761876744748553,9.825315347041279,0.25016615896554417,1.0,29.61737
293,9.892843287570773,-0.13203555162679523,9.892843287570773,0.11654982846825948,0.0,0.0
294,9.92660725783552,-0.3780209748444951,9.92660725783552,-0.08418047277022378,0.0,0.0
295,9.960371228100266,-0.47136521523114794,9.960371228100266,-0.3145093059653506,0.0,0.0
296,9.994135198365013,-0.5019713992269762,9.994135198365013,-0.5173789734254871,0.0,0.0
297,10.02789916862976,-0.6216850705407214,10.02789916862976,-0.6672714439412741,0.0,0.0
298,10.061663138894506,-0.9359536438317844,10.061663138894506,-0.7798446812304419,0.0,0.0
299,10.095427109159253,-1.4173922552719762,10.095427109159253,-0.8911984032826281,0.0,0.0
300,10.129191079424,-1.897855021682926,10.129191079424,-1.018891531122398,0.0,0.0
301,10.162955049688746,-2.1430254505259967,10.162955049688746,-1.130116459900883,0.0,0.0
302,10.196719019953493,-1.96683437592847,10.196719019953493,-1.141925986361443,0.0,0.0
303,10.23048299021824,-1.3293354284778605,10.23048299021824,-0.9613351364510954,0.0,0.0
304,10.264246960482987,-0.37497706896086097,10.264246960482987,-0.5468491675968365,0.0,0.0
305,10.298010930747733,0.6098611336741617,10.298010930747733,0.046258056469950355,0.0,0.0
306,10.33177490101248,1.3127805149361844,10.33177490101248,0.670826021872628,0.0,0.0
307,10.365538871277227,1.538505083351292,10.365538871277227,1.1478524337864744,0.0,0.0
308,10.399302841541973,1.3038784813853153,10.399302841541973,1.3503072926663124,0.0,0.0
309,10.43306681180672,0.8242310815653856,10.43306681180672,1.2619714416640044,0.0,0.0
310,10.466830782071467,0.3928732017979648,10.466830782071467,0.9777607487222553,0.0,0.0
311,10.500594752336212,0.2234610384579561,10.500594752336212,0.6483956994547757,0.0,0.0
312,10.53435872260096,0.34850875676063353,10.53435872260096,0.40392059003224023,0.0,0.0
313,10.568122692865707,0.6299892135727643,10.568122692865707,0.2982434158119344,0.0,0.0
314,10.601886663130452,0.8661249403085166,10.601886663130452,0.2998911529774756,0.0,0.0
315,10.6356506333952,0.9192870653728564,10.6356506333952,0.32634504009173826,0.0,0.0
316,10.669414603659947,0.7819564986281955,10.669414603659947,0.29740833279045376,0.0,0.0
317,10.703178573924694,0.5467631174465098,10.703178573924694,0.17735390260090403,0.0,0.0
318,10.73694254418944,0.3163766184967866,10.73694254418944,-0.013864214343414644,0.0,0.0
319,10.770706514454186,0.1254739170398332,10.770706514454186,-0.2214036746040053,0.0,0.0
320,10.804470484718934,-0.07385897387210816,10.804470484718934,-0.3930260520196655,0.0,0.0
321,10.838234454983679,-0.36381530970120246,10.838234454983679,-0.5109444300583853,0.0,0.0
322,10.871998425248426,-0.7881024871475719,10.871998425248426,-0.5997987211068307,0.0,0.0
323,10.905762395513174,-1.2981347617320906,10.905762395513174,-0.7053872792722314,0.0,0.0
324,10.939526365777919,-1.7469801917346102,10.939526365777919,-0.8550828217312301,0.0,0.0
325,10.973290336042666,-1.9409540639258267,10.973290336042666,-1.023251277676162,0.0,0.0
326,11.007054306307413,-1.7335738081168763,11.007054306307413,-1.1260391789854414,0.0,0.0
327,11.04081827657216,-1.1157456461418371,11.04081827657216,-1.05609532159759,0.0,0.0
328,11.074582246836906,-0.24364439713819544,11.074582246836906,-0.7438783742245628,0.0,0.0
329,11.108346217101653,0.6231085277192369,11.108346217101653,-0.211609527279416,0.0,0.0
330,11.1421101873664,1.2400057233270152,11.1421101873664,0.41597975555282535,0.0,0.0
331,11.175874157631146,1.4811186744673095,11.175874157631146,0.9576667362893414,0.0,0.0
332,11.209638127895893,1.3724972111219058,11.209638127895893,1.2574096467354978,0.0,0.0
333,11.24340209816064,1.0525400015558652,11.24340209816064,1.2566417875202904,0.0,0.0
334,11.277166068425386,0.6957533094604627,11.277166068425386,1.016429138610384,0.0,0.0
335,11.310930038690133,0.4418037316492702,11.310930038690133,0.678779729022525,0.0,0.0
336,11.34469400895488,0.35620060847734153,11.34469400895488,0.3916494496309392,0.0,0.0
337,11.378457979219627,0.42878461259932027,11.378457979219627,0.24019876898133008,0.0,0.0
338,11.412221949484373,0.5982925418993151,11.412221949484373,0.21889037733588573,0.0,0.0
339,11.44598591974912,0.7819135873957087,11.44598591974912,0.25319960181063195,0.0,0.0
340,11.479749890013867,0.8942030837515299,11.479749890013867,0.25256653575090054,0.0,0.0
341,11.513513860278612,0.8560099598874403,11.513513860278612,0.16223440471272182,0.0,0.0
342,11.54727783054336,0.6059732802980681,11.54727783054336,-0.013547144347689832,0.0,0.0
343,11.581041800808107,0.12228706676867403,11.581041800808107,-0.2255162008982502,0.0,0.0
344,11.614805771072852,-0.5540422921809135,11.614805771072852,-0.41756362087322973,0.0,0.0
345,11.6485697413376,-1.3129203665991969,11.6485697413376,-0.5634361077738751,0.0,0.0
346,11.682333711602347,-1.9968428867481498,11.682333711602347,-0.6786661932345294,0.0,0.0
347,11.716097681867094,-2.445039915797826,11.716097681867094,-0.7998727892028131,0.0,0.0
348,11.74986165213184,-2.543241659845596,11.74986165213184,-0.9440837486337332,0.0,0.0
349,11.783625622396587,-2.2607991831844543,11.783625622396587,-1.0753269217046035,0.0,0.0
350,11.817389592661334,-1.6624122023456074,11.817389592661334,-1.105089602259229,0.0,0.0
351,11.85115356292608,-0.8905031511266372,11.85115356292608,-0.934877668255564,0.0,0.0
352,11.884917533190826,-0.12297864947045171,11.884917533190826,-0.5211681343637614,0.0,0.0
353,11.918681503455574,0.48211976511163057,11.918681503455574,0.07717893409807824,0.0,0.0
354,11.952445473720319,0.8383520674797622,11.952445473720319,0.7047663164442076,0.0,0.0
355,11.986209443985066,0.9599725501900104,11.986209443985066,1.1737041966396875,0.0,0.0
356,12.019973414249813,0.952843330134942,12.019973414249813,1.3523942463081682,0.0,0.0
357,12.05373738451456,0.9621998930727969,12.05373738451456,1.2274919116445338,0.0,0.0
358,12.087501354779306,1.0924767996897298,12.087501354779306,0.9035263790185027,0.0,0.0
359,12.121265325044053,1.3398505368714928,12.121265325044053,0.5429824257935829,0.0,0.0
360,12.1550292953088,1.584896220049862,12.1550292953088,0.2836771792732793,0.0,0.0
361,12.188793265573546,1.6600540473407288,12.188793265573546,0.1794362856521929,0.0,0.0
362,12.222557235838293,1.453771617189676,12.222557235838293,0.1920245245172442,0.0,0.0
363,12.25632120610304,0.9851337401255511,12.25632120610304,0.23083428858300514,0.0,0.0
364,12.290085176367786,0.4010904103634584,12.256321206103038,0.2308342885830031,1.0,29.61737
365,12.323849146632533,-0.10351809978849301,12.290085176367786,0.21138824767527908,1.0,29.61737
366,12.35761311689728,-0.3962957095724503,12.323849146632533,0.09779626344438369,1.0,29.61737
367,12.391377087162027,-0.48200082003546907,12.35761311689728,-0.09116050277094027,1.0,29.61737
368,12.425141057426773,-0.49577686770307716,12.391377087162025,-0.3084199599847499,1.0,29.61737
369,12.45890502769152,-0.6170933559695494,12.425141057426773,-0.5147216226461034,1.0,29.61737
370,12.492668997956267,-0.9526797722656499,12.45890502769152,-0.6984477720332404,1.0,29.61737
371,12.526432968221012,-1.4541198036840186,12.492668997956265,-0.8665546585107355,1.0,29.61737
372,12.56019693848576,-1.9186787208422384,12.526432968221012,-1.0151284429688,1.0,29.61737
373,12.593960908750507,-2.082273354688499,12.56019693848576,-1.1041516102707616,1.0,29.61737
374,12.627724879015252,-1.7650542752410174,12.593960908750505,-1.0609348702153831,1.0,29.61737
375,12.66148884928,-0.9899755355851944,12.627724879015252,-0.8182742695413326,1.0,29.61737
376,12.695252819544747,0.005005304478088119,12.66148884928,-0.36706757922724204,1.0,29.61737
377,12.729016789809494,0.8805477937158643,12.695252819544747,0.21269416435111813,1.0,29.61737
378,12.76278076007424,1.3711120344102798,12.729016789809492,0.7697937262059411,1.0,29.61737
379,12.796544730338987,1.4167582065894686,12.76278076007424,1.1451730310855937,1.0,29.61737
380,12.830308700603734,1.1771410336026498,12.796544730338987,1.2461219529243823,1.0,29.61737
381,12.86407267086848,0.9254719192705936,12.830308700603732,1.0877783505052783,1.0,29.61737
382,12.897836641133226,0.8864860808415551,12.86407267086848,0.7787006920592173,1.0,29.61737
383,12.931600611397974,1.1100434990816521,12.897836641133226,0.4613507672953158,1.0,29.61737
384,12.965364581662719,1.4491230598582456,12.931600611397972,0.2429387045208619,1.0,29.61737
385,12.999128551927466,1.6504002430279034,12.965364581662719,0.15345406463661868,1.0,29.61737
386,13.032892522192213,1.5031851509818663,12.999128551927466,0.1485071307002552,1.0,29.61737
387,13.06665649245696,0.9636402641578072,13.032892522192213,0.14866218523659394,1.0,29.61737
388,13.100420462721706,0.18613487303534546,13.066656492456959,0.08908657904410618,1.0,29.61737
389,13.134184432986453,-0.5586970708434478,13.100420462721706,-0.0483083301392418,1.0,29.61737
390,13.1679484032512,-1.0375804167605234,13.134184432986453,-0.2347593329023538,1.0,29.61737
391,13.201712373515946,-1.1904456472719709,13.167948403251199,-0.4215695942932223,1.0,29.61737
392,13.235476343780693,-1.160497222812527,13.201712373515946,-0.5742438110430019,1.0,29.61737
393,13.26924031404544,-1.192769979111456,13.235476343780693,-0.6914068636509549,1.0,29.61737
394,13.303004284310186,-1.4637463830265427,13.235476343780693,-0.6914068636509549,2.0,59.23474
395,13.336768254574933,-1.9557416893961976,13.26924031404544,-0.7963673504226043,2.0,59.23474
396,13.37053222483968,-2.4602956831403335,13.303004284310187,-0.9067431859844747,2.0,59.23474
397,13.404296195104427,-2.7027242597009367,13.336768254574935,-1.00293247386115,2.0,59.23474
398,13.438060165369173,-2.4978221142746584,13.37053222483968,-1.0200060641348165,2.0,59.23474
399,13.47182413563392,-1.8386183782938479,13.404296195104427,-0.8753718460283235,2.0,59.23474
400,13.505588105898667,-0.8819165975538902,13.438060165369174,-0.5211893067214102,2.0,59.23474
401,13.539352076163413,0.1359531244927889,13.47182413563392,0.009799009173311059,2.0,59.23474
402,13.57311604642816,0.995250368933501,13.505588105898667,0.597947499798019,2.0,59.23474
403,13.606880016692907,1.5624749681410643,13.539352076163414,1.0809720343590947,2.0,59.23474
404,13.640643986957652,1.821814824203091,13.606880016692905,1.2979001159035697,1.0,29.61737
405,13.6744079572224,1.865354145262585,13.640643986957652,1.0586598876230988,1.0,29.61737
406,13.708171927487147,1.8397835172971204,13.6744079572224,0.7423258904847505,1.0,29.61737
407,13.741935897751894,1.862990464833211,13.708171927487147,0.4794759075292625,1.0,29.61737
408,13.77569986801664,1.9519301889063994,13.708171927487147,0.4794759075292625,2.0,59.23474
409,13.809463838281387,2.011888506703546,13.741935897751894,0.33969713301531473,2.0,59.23474
410,13.843227808546134,1.9040882590638755,13.775699868016641,0.31082240355037527,2.0,59.23474
411,13.87699177881088,1.5518577614612048,13.809463838281387,0.321720513415041,2.0,59.23474
412,13.910755749075626,1.0114051983811974,13.843227808546134,0.29084160354634353,2.0,59.23474
413,13.944519719340374,0.45288615564390977,13.876991778810881,0.17182383355810302,2.0,59.23474
414,13.978283689605119,0.058601633255785275,13.910755749075626,-0.027364576596715377,2.0,59.23474
415,14.012047659869866,-0.09669562591980438,13.944519719340374,-0.2586227632070734,2.0,59.23474
416,14.045811630134613,-0.10389519487274149,13.97828368960512,-0.46941020135245376,2.0,59.23474
417,14.079575600399359,-0.17445180278102754,14.012047659869866,-0.6366514399657095,2.0,59.23474
418,14.113339570664106,-0.5142609741508799,14.045811630134613,-0.7769454504004488,2.0,59.23474
419,14.147103540928853,-1.1869803126732508,14.07957560039936,-0.9251185307123347,2.0,59.23474
420,14.1808675111936,-2.0449925863721283,14.113339570664108,-1.0932651232137296,2.0,59.23474
421,14.214631481458346,-2.7733594451480177,14.147103540928853,-1.2378336253376339,2.0,59.23474
422,14.248395451723093,-3.033458303604737,14.1808675111936,-1.262359759861533,2.0,59.23474
423,14.28215942198784,-2.634524220230271,14.214631481458348,-1.0642642705795116,2.0,59.23474
424,14.315923392252586,-1.6389142879394203,14.248395451723093,-0.6040505954406215,2.0,59.23474
425,14.349687362517333,-0.34174718479977184,14.28215942198784,0.04643879898179373,2.0,59.23474
426,14.38345133278208,0.8627222444109978,14.315923392252587,0.7144808475365797,2.0,59.23474
427,14.417215303046826,1.654803881974161,14.349687362517333,1.1989331026560845,2.0,59.23474
428,14.450979273311573,1.9134855531096422,14.38345133278208,1.366347269799038,2.0,59.23474
429,14.48474324357632,1.7314950281002082,14.417215303046827,1.2142465600731427,2.0,59.23474
430,14.518507213841067,1.3233178546133237,14.450979273311575,0.8646664955214564,2.0,59.23474
431,14.552271184105813,0.8911693074711037,14.48474324357632,0.4942983170306085,2.0,59.23474
432,14.58603515437056,0.5347926914908664,14.518507213841067,0.24437504794605702,2.0,59.23474
433,14.619799124635307,0.2484391245160886,14.552271184105814,0.16094634632373792,2.0,59.23474
434,14.653563094900052,-0.020489906464543236,14.58603515437056,0.19311229365912777,2.0,59.23474
435,14.6873270651648,-0.3097421052596267,14.619799124635307,0.24078578359246494,2.0,59.23474
436,14.721091035429547,-0.6153973785715722,14.653563094900054,0.21748758298782195,2.0,59.23474
437,14.754855005694292,-0.899745390458734,14.6873270651648,0.09126631096251385,2.0,59.23474
438,14.78861897595904,-1.1153077069711288,14.721091035429547,-0.1139950004707622,2.0,59.23474
439,14.822382946223787,-1.2295383649789506,14.754855005694294,-0.3481918569245717,2.0,59.23474
440,14.856146916488534,-1.2405512908560432,14.788618975959041,-0.5696866652375558,2.0,59.23474
441,14.88991088675328,-1.1750717278122569,14.822382946223787,-0.7604822774181377,2.0,59.23474
442,14.923674857018026,-1.0659017238542954,14.856146916488534,-0.914397024697598,2.0,59.23474
443,14.957438827282774,-0.9224264494083378,14.889910886753281,-1.0118705385780455,2.0,59.23474
444,14.991202797547519,-0.7178768992517254,14.923674857018026,-1.0060920555819801,2.0,59.23474
445,15.024966767812266,-0.40615101588714553,14.957438827282774,-0.8381297945269444,2.0,59.23474
446,15.058730738077013,0.04131121480332449,14.99120279754752,-0.4771860167196392,2.0,59.23474
447,15.092494708341759,0.6019819507653209,15.024966767812266,0.03968691370024135,2.0,59.23474
448,15.126258678606506,1.194250757614161,15.058730738077013,0.5995072177555332,2.0,59.23474
449,15.160022648871253,1.7045760196720408,15.09249470834176,1.0506358781935687,2.0,59.23474
450,15.193786619136,2.0386655411654933,15.126258678606508,1.2692885330858923,2.0,59.23474
451,15.227550589400746,2.164954095980806,15.160022648871253,1.2178413374071275,2.0,59.23474
452,15.261314559665493,2.1170328308732627,15.193786619136,0.9604028080306507,2.0,59.23474
453,15.29507852993024,1.9516156128823694,15.227550589400748,0.6266029351547229,2.0,59.23474
454,15.328842500194986,1.6999451160322903,15.261314559665493,0.34512598939277234,2.0,59.23474
455,15.362606470459733,1.359486121311244,15.29507852993024,0.18458955583692366,2.0,59.23474
456,15.39637044072448,0.9322867759967125,15.328842500194988,0.13245652026920032,2.0,59.23474
457,15.430134410989226,0.4654681331297032,15.362606470459733,0.11894147244139902,2.0,59.23474
458,15.463898381253973,0.043640431982939536,15.39637044072448,0.06727590148447271,2.0,59.23474
459,15.49766235151872,-0.2691481059139641,15.430134410989227,-0.0612081898272969,2.0,59.23474
460,15.531426321783467,-0.4877341222773473,15.463898381253975,-0.25240954008629,2.0,59.23474
461,15.565190292048213,-0.7090880194836717,15.49766235151872,-0.4596455979483229,2.0,59.23474
462,15.59895426231296,-1.050424328237928,15.531426321783467,-0.640976946356465,2.0,59.23474
463,15.632718232577707,-1.5639143867458096,15.565190292048214,-0.7860672811298282,2.0,59.23474
464,15.666482202842452,-2.1851248258906413,15.59895426231296,-0.9133296111755579,2.0,59.23474
465,15.7002461731072,-2.7469103865001707,15.632718232577707,-1.039433053061933,2.0,59.23474
466,15.734010143371947,-3.0502918430542447,15.666482202842454,-1.144079535549701,2.0,59.23474
467,15.767774113636692,-2.954335520971102,15.7002461731072,-1.1592889531320214,2.0,59.23474
468,15.80153808390144,-2.4391123165999296,15.734010143371947,-0.9982677699656559,2.0,59.23474
469,15.835302054166187,-1.6106442403600438,15.767774113636694,-0.6115865726017864,2.0,59.23474
470,15.869066024430934,-0.6488453283639234,15.801538083901441,-0.03581957818815485,2.0,59.23474
471,15.90282999469568,0.2675083019565216,15.835302054166187,0.6007028591173899,2.0,59.23474
472,15.936593964960426,1.0137924879645046,15.869066024430934,1.1257072785243927,2.0,59.23474
473,15.970357935225174,1.5271557802044202,15.902829994695681,1.4006089192949978,2.0,59.23474
474,16.00412190548992,1.783404857704452,15.936593964960428,1.3838564954677384,2.0,59.23474
475,16.037885875754668,1.7797260835924702,15.970357935225175,1.1440182894413684,2.0,59.23474
476,16.07164984601941,1.5455107275646016,16.004121905489917,0.8173507367591264,2.0,59.23474
477,16.10541381628416,1.1663733451533504,16.037885875754665,0.5366844975356146,2.0,59.23474
478,16.139177786548906,0.7827067273508186,16.07164984601941,0.3718689074610164,2.0,59.23474
479,16.172941756813653,0.53949591145798,16.10541381628416,0.3109985047924158,2.0,59.23474
480,16.2067057270784,0.5088698404721269,16.139177786548906,0.28597654757776103,2.0,59.23474
481,16.240469697343148,0.6417876755558396,16.172941756813653,0.22207768102355596,2.0,59.23474
482,16.27423366760789,0.7944150066197704,16.17294175681365,0.22207768102356268,3.0,88.85211000000001
483,16.30799763787264,0.8196040596108539,16.206705727078397,0.08164296393731285,3.0,88.85211000000001
484,16.341761608137386,0.6586803442377209,16.240469697343144,-0.1203733538455665,3.0,88.85211000000001
485,16.375525578402133,0.36563419362121513,16.30799763787264,-0.5062000942241524,2.0,59.23474
486,16.40928954866688,0.052039438345112765,16.30799763787264,-0.5062000942241524,3.0,88.85211000000001
487,16.443053518931627,-0.19502675504371858,16.341761608137386,-0.6205012032254984,3.0,88.85211000000001
488,16.476817489196375,-0.356202128577387,16.375525578402133,-0.6985629948937125,3.0,88.85211000000001
489,16.510581459461118,-0.46096809478581496,16.409289548666877,-0.7836446482385008,3.0,88.85211000000001
490,16.544345429725865,-0.5378208359992569,16.443053518931624,-0.9010434867763042,3.0,88.85211000000001
491,16.578109399990613,-0.5836686431147406,16.47681748919637,-1.0246942649494988,3.0,88.85211000000001
492,16.61187337025536,-0.5762706828254858,16.510581459461118,-1.073843348843541,3.0,88.85211000000001
493,16.645637340520107,-0.5103773215026257,16.544345429725865,-0.9494669933445045,3.0,88.85211000000001
494,16.679401310784854,-0.41678164894396047,16.578109399990613,-0.5951206981020571,3.0,88.85211000000001
495,16.7131652810496,-0.3412958990127634,16.61187337025536,-0.04674600882988417,3.0,88.85211000000001
496,16.746929251314345,-0.30162387966721144,16.645637340520103,0.5634846186650844,3.0,88.85211000000001
497,16.780693221579092,-0.265436417238278,16.67940131078485,1.0588820403136843,3.0,88.85211000000001
498,16.81445719184384,-0.17577317096850945,16.713165281049598,1.299737524724354,3.0,88.85211000000001
499,16.848221162108587,-0.005425746770167599,16.746929251314345,1.2482538899730526,3.0,88.85211000000001
500,16.881985132373334,0.2066866548277067,16.780693221579092,0.9800892054587973,3.0,88.85211000000001
501,16.91574910263808,0.37114448507121006,16.81445719184384,0.6383918546915055,3.0,88.85211000000001
502,16.949513072902825,0.4076148053702968,16.848221162108583,0.35933374084865743,3.0,88.85211000000001
503,16.983277043167572,0.3036455683464618,16.88198513237333,0.21122551266202425,3.0,88.85211000000001
504,17.01704101343232,0.125912294894145,16.915749102638078,0.17712342546696974,3.0,88.85211000000001
505,17.050804983697066,-0.026739604113261477,16.949513072902825,0.183526131765069,3.0,88.85211000000001
506,17.084568953961814,-0.09346447525141396,16.983277043167572,0.1523637353357579,3.0,88.85211000000001
507,17.11833292422656,-0.09271321628699486,17.01704101343232,0.04396890131500817,3.0,88.85211000000001
508,17.152096894491308,-0.10628098229704294,17.050804983697066,-0.13126112098211595,3.0,88.85211000000001
509,17.18586086475605,-0.2194975500414638,17.08456895396181,-0.3330614744340792,3.0,88.85211000000001
510,17.2196248350208,-0.45832503936823044,17.118332924226557,-0.5242635079256831,3.0,88.85211000000001
511,17.253388805285546,-0.7619496063992933,17.152096894491304,-0.691452977925521,3.0,88.85211000000001
512,17.287152775550293,-1.0051124063777135,17.18586086475605,-0.8390115572568932,3.0,88.85211000000001
513,17.32091674581504,-1.0568685637863104,17.2196248350208,-0.9627254755471958,3.0,88.85211000000001
514,17.354680716079788,-0.8468656712875016,17.253388805285546,-1.0259496538251685,3.0,88.85211000000001
515,17.38844468634453,-0.4084780064151368,17.28715277555029,-0.9623196824960631,3.0,88.85211000000001
516,17.42220865660928,0.125041999798591,17.320916745815037,-0.7115207290958412,3.0,88.85211000000001
517,17.455972626874026,0.5784567582150622,17.354680716079784,-0.268955564839219,3.0,88.85211000000001
518,17.489736597138773,0.8232130697364384,17.38844468634453,0.2853487903139456,3.0,88.85211000000001
519,17.52350056740352,0.8448275692049753,17.42220865660928,0.8047421893936877,3.0,88.85211000000001
520,17.557264537668267,0.7409412832625274,17.455972626874026,1.1374704394064201,3.0,88.85211000000001
521,17.591028507933014,0.6485195280268012,17.489736597138773,1.198048261452764,3.0,88.85211000000001
522,17.624792478197758,0.65252930885778,17.523500567403516,1.006465628130898,3.0,88.85211000000001
523,17.658556448462505,0.7407149756968967,17.827376299786238,-0.23012340330896305,-5.0,-148.08685
524,17.692320418727252,0.8294132908537403,17.861140270050985,-0.5170023630453888,-5.0,-148.08685
525,17.726084388992,0.8314534088919341,17.894904240315732,-0.832575537479093,-5.0,-148.08685
526,17.759848359256747,0.7134454989498683,17.62479247819776,0.11632230415570999,4.0,118.46948
527,17.793612329521494,0.5070775122026921,17.65855644846251,0.03367306099648877,4.0,118.46948
528,17.82737629978624,0.2754797945302907,17.692320418727256,0.05254810006656267,4.0,118.46948
529,17.861140270050985,0.06347375305696383,17.726084388992,0.094458130268012,4.0,118.46948
530,17.894904240315732,-0.13359800968800117,17.759848359256747,0.08442141966020278,4.0,118.46948
531,17.92866821058048,-0.3617063848044733,17.793612329521494,-0.021534470272315826,4.0,118.46948
532,17.962432180845227,-0.6650430158703363,17.82737629978624,-0.23012340330898498,4.0,118.46948
533,17.996196151109974,-1.0362139572159796,17.86114027005099,-0.517002363045422,4.0,118.46948
534,18.02996012137472,-1.395234319872813,17.894904240315736,-0.8325755374791215,4.0,118.46948
535,18.063724091639465,-1.616547698666306,17.92866821058048,-1.1035518733972247,4.0,118.46948
536,18.09748806190421,-1.5926476842104713,17.962432180845227,-1.2390576012197048,4.0,118.46948
537,18.13125203216896,-1.2973636357178104,17.996196151109974,-1.1533703681845637,4.0,118.46948
538,18.165016002433706,-0.8088863059792943,18.02996012137472,-0.8054726579173509,4.0,118.46948
539,18.198779972698453,-0.27595791113192164,18.063724091639468,-0.23651090571812292,4.0,118.46948
540,18.2325439429632,0.1548396500328597,18.097488061904215,0.4231613941464345,4.0,118.46948
541,18.266307913227948,0.40987492988236224,18.131252032168963,0.9933120653267965,4.0,118.46948
542,18.30007188349269,0.5179186868022972,18.165016002433706,1.3165045241806508,4.0,118.46948
543,18.33383585375744,0.5829396260787986,18.198779972698453,1.3263129172978312,4.0,118.46948
544,18.367599824022186,0.7186268574579009,18.2325439429632,1.072649350186528,4.0,118.46948
545,18.401363794286933,0.9839561538124737,18.266307913227948,0.6909450390484361,4.0,118.46948
546,18.43512776455168,1.3515162239505785,18.300071883492695,0.3347460054442839,4.0,118.46948
547,18.468891734816427,1.7148621664591333,18.333835853757442,0.10949166649923972,4.0,118.46948
548,18.502655705081175,1.9241220086942852,18.36759982402219,0.039300844082453455,4.0,118.46948
549,18.53641967534592,1.8388268148251214,18.401363794286933,0.07567048999934418,4.0,118.46948
550,18.570183645610665,1.3869462260241525,18.43512776455168,0.13339193639219424,4.0,118.46948
551,18.603947615875413,0.608139686040297,18.468891734816427,0.1290242423510532,4.0,118.46948
552,18.63771158614016,-0.3471755088831268,18.502655705081175,0.004860782526107114,4.0,118.46948
553,18.671475556404907,-1.2716700699958283,18.536419675345922,-0.26193672408492213,4.0,118.46948
554,18.705239526669654,-1.9793772175194553,18.57018364561067,-0.6540947611739273,4.0,118.46948
555,18.739003496934398,-2.3613018626128564,18.603947615875413,-1.1057207521263517,4.0,118.46948
556,18.772767467199145,-2.39262823215119,18.63771158614016,-1.4983733710928595,4.0,118.46948
557,18.806531437463892,-2.1061849610262198,18.671475556404907,-1.6803222047159145,4.0,118.46948
558,18.84029540772864,-1.5665496787929565,18.705239526669654,-1.519547864853145,4.0,118.46948
559,18.874059377993387,-0.8636570971110744,18.7390034969344,-0.9748208602492978,4.0,118.46948
560,18.907823348258134,-0.11576876480611133,18.77276746719915,-0.1442656134250766,4.0,118.46948
561,18.94158731852288,0.5412275684557079,18.806531437463896,0.7486096828957075,4.0,118.46948
562,18.975351288787625,0.988599393766892,18.84029540772864,1.4384116927318815,4.0,118.46948
563,19.009115259052372,1.1691153037833584,18.874059377993387,1.7325870898468934,4.0,118.46948
564,19.04287922931712,1.111180035244197,18.907823348258134,1.5948726516194196,4.0,118.46948
565,19.076643199581866,0.9123487391525188,18.94158731852288,1.1513098735124843,4.0,118.46948
566,19.110407169846614,0.6908114456130505,18.97535128878763,0.618583826152151,4.0,118.46948
567,19.14417114011136,0.536257469336362,19.009115259052376,0.1979769569652688,4.0,118.46948
568,19.177935110376108,0.4854411051408658,19.042879229317123,-0.007887398295340702,4.0,118.46948
569,19.21169908064085,0.5223661941089038,19.076643199581866,-0.018413156449264587,4.0,118.46948
570,19.2454630509056,0.5893254768275894,19.110407169846614,0.06140118085593315,4.0,118.46948
571,19.279227021170346,0.6032744455956277,19.14417114011136,0.10656692831846246,4.0,118.46948
572,19.312990991435093,0.4822702468810702,19.177935110376108,0.02856344505627959,4.0,118.46948
573,19.34675496169984,0.18133745573446425,19.211699080640855,-0.20003949348198977,4.0,118.46948
574,19.380518931964588,-0.2776180759957231,19.245463050905602,-0.5506051564139269,4.0,118.46948
575,19.41428290222933,-0.8016525994659401,19.279227021170346,-0.9551048717812809,4.0,118.46948
576,19.44804687249408,-1.2541310209643683,19.312990991435093,-1.3193167946152218,4.0,118.46948
577,19.481810842758826,-1.5012263402857828,19.34675496169984,-1.5332140248865909,4.0,118.46948
578,19.515574813023573,-1.458665629291577,20.089562307524265,-1.5595097161651563,-17.0,-503.49529
579,19.54933878328832,-1.1217291841459,20.123326277789012,-1.1897635777732716,-17.0,-503.49529
580,19.583102753553067,-0.5668097397768855,20.15709024805376,-0.529089957325169,-17.0,-503.49529
581,19.616866723817814,0.07472748299876612,20.190854218318506,0.2802114151039692,-17.0,-503.49529
582,19.650630694082558,0.6567529014184114,20.22461818858325,1.022584514703412,-17.0,-503.49529
583,19.684394664347305,1.0590969654969022,20.258382158847997,1.4930435377003117,-17.0,-503.49529
584,19.718158634612053,1.2214074527947647,19.583102753553067,1.6751911527468262,4.0,118.46948
585,19.7519226048768,1.1601321270592861,19.616866723817814,1.4293230341237353,4.0,118.46948
586,19.785686575141547,0.9561667971149821,19.65063069408256,0.9760829807347973,4.0,118.46948
587,19.819450545406294,0.7145271597816493,19.68439466434731,0.5103490374071059,4.0,118.46948
588,19.85321451567104,0.5165910972837113,19.718158634612056,0.18443690439458027,4.0,118.46948
589,19.886978485935785,0.3884142355438973,19.7519226048768,0.051411707537228325,4.0,118.46948
590,19.920742456200532,0.29677426766336046,19.785686575141547,0.06422741181545744,4.0,118.46948
591,19.95450642646528,0.17256289300401537,19.819450545406294,0.1199990144302048,4.0,118.46948
592,19.988270396730027,-0.04852658101358423,19.85321451567104,0.11696279153518471,4.0,118.46948
593,20.022034366994774,-0.3874139884017671,19.88697848593579,-0.00673663628478333,4.0,118.46948
594,20.05579833725952,-0.8053714134268224,19.920742456200536,-0.2633473873878692,4.0,118.46948
595,20.089562307524265,-1.2167849552582901,19.95450642646528,-0.624392079437003,4.0,118.46948
596,20.123326277789012,-1.5207931178669987,19.988270396730027,-1.0304685386044372,4.0,118.46948
597,20.15709024805376,-1.6358717911606941,20.022034366994774,-1.39444498963846,4.0,118.46948
598,20.190854218318506,-1.5256675573738987,20.05579833725952,-1.6069267504188602,4.0,118.46948
599,20.224618188583253,-1.2087569921406538,20.089562307524268,-1.5595097161651175,4.0,118.46948
600,20.258382158848,-0.7483696104221177,20.123326277789015,-1.189763577773202,4.0,118.46948
601,20.292146129112748,-0.22623587641893753,20.157090248053763,-0.5290899573250838,4.0,118.46948
602,20.32591009937749,0.2852262541375503,20.190854218318506,0.2802114151039692,4.0,118.46948
603,20.35967406964224,0.7374946658308895,20.224618188583253,1.0225845147034902,4.0,118.46948
604,20.393438039906986,1.1037057174210498,20.258382158848,1.4930435377003612,4.0,118.46948
605,20.427202010171733,1.3675535393663094,20.292146129112748,1.5856357236815493,4.0,118.46948
606,20.46096598043648,1.5130263396605947,20.325910099377495,1.3370217324631044,4.0,118.46948
607,20.494729950701227,1.5206678358169992,20.359674069642242,0.9004870462370721,4.0,118.46948
608,20.528493920965975,1.3741735673987088,20.39343803990699,0.46641645805389903,4.0,118.46948
609,20.56225789123072,1.0782318657172036,20.427202010171733,0.1743978142525209,4.0,118.46948
610,20.596021861495466,0.6780283117548931,20.46096598043648,0.06251236445791061,4.0,118.46948
611,20.629785831760213,0.26102979591329667,20.494729950701227,0.07394318372105058,4.0,118.46948
612,20.66354980202496,-0.07147810502154281,21.23753729652565,0.3446770977144335,-17.0,-503.49529
613,20.697313772289707,-0.25337788234554576,21.2713012667904,0.35368954840014094,-17.0,-503.49529
614,20.731077742554454,-0.29470272857462265,21.305065237055146,0.25052725132681114,-17.0,-503.49529
615,20.764841712819198,-0.28521466690326114,21.33882920731989,0.020069919354822302,-17.0,-503.49529
616,20.798605683083945,-0.3490402332405799,20.629785831760213,-0.2796143076927161,5.0,148.08685
617,20.832369653348692,-0.5676002210434894,20.66354980202496,-0.560709648408603,5.0,148.08685
618,20.86613362361344,-0.9141560138989542,20.697313772289707,-0.8642792897333621,5.0,148.08685
619,20.899897593878187,-1.2483306134245986,20.731077742554454,-1.1544896759720071,5.0,148.08685
620,20.933661564142934,-1.3887940191834194,20.7648417128192,-1.3786960224783202,5.0,148.08685
621,20.96742553440768,-1.2269873001836735,21.541413028908373,-1.9765777702661675,-17.0,-503.49529
622,21.001189504672425,-0.8059528686030845,21.575176999173117,-2.0491267072120687,-17.0,-503.49529
623,21.034953474937172,-0.3049856583486229,21.608940969437864,-1.7842053514595788,-17.0,-503.49529
624,21.06871744520192,0.06487735447993631,21.64270493970261,-1.1161802737746456,-17.0,-503.49529
625,21.102481415466666,0.18658800661086553,20.933661564142934,0.6331741564569305,5.0,148.08685
626,21.136245385731414,0.10082462434251646,20.96742553440768,1.3193672531120975,5.0,148.08685
627,21.17000935599616,-0.03171236856783465,21.00118950467243,1.708447335144099,5.0,148.08685
628,21.203773326260904,-0.037693691552036016,21.034953474937172,1.7210171817014046,5.0,148.08685
629,21.23753729652565,0.1666163240636284,21.06871744520192,1.421143593201932,5.0,148.08685
630,21.2713012667904,0.5372985585815414,21.136245385731414,0.5846579187316778,4.0,118.46948
631,21.305065237055146,0.9367063670740061,21.17000935599616,0.3579327527477021,4.0,118.46948
632,21.338829207319893,1.2072102688678064,21.203773326260908,0.306739656774053,4.0,118.46948
633,21.37259317758464,1.2440463981184335,21.237537296525655,0.34467709771443444,4.0,118.46948
634,21.406357147849388,1.0381370351385426,21.98034464235008,0.20796423137444428,-17.0,-503.49529
635,21.44012111811413,0.6748955790882735,22.014108612614823,0.30980792092251574,-17.0,-503.49529
636,21.47388508837888,0.28951774960262483,22.04787258287957,0.3563124391255563,-17.0,-503.49529
637,21.507649058643626,-0.003026023334478775,22.081636553144318,0.2524183449536712,-17.0,-503.49529
638,21.541413028908373,-0.16796674307063536,22.115400523409065,-0.01731151748905692,-17.0,-503.49529
639,21.57517699917312,-0.2638258900888836,22.149164493673812,-0.4095708673723058,-17.0,-503.49529
640,21.608940969437867,-0.3956271557607316,22.18292846393856,-0.857496344854402,-17.0,-503.49529
641,21.642704939702615,-0.6339705510843258,22.216692434203306,-1.289907196108499,-17.0,-503.49529
642,21.676468909967358,-0.9522305602556762,22.25045640446805,-1.6274759999547816,-17.0,-503.49529
643,21.710232880232105,-1.2255922331508053,22.284220374732797,-1.774850310665783,-17.0,-503.49529
644,21.743996850496853,-1.2956994030605946,22.317984344997544,-1.635472365950018,-17.0,-503.49529
645,21.7777608207616,-1.062178390122953,22.35174831526229,-1.157453680394774,-17.0,-503.49529
646,21.811524791026347,-0.5461385961640474,21.946580672085332,0.20158079694790626,-4.0,-118.46948
647,21.845288761291094,0.1104817320758107,21.71023288023211,0.9392059482190209,4.0,118.46948
648,21.879052731555838,0.7069197480118917,21.743996850496853,1.7823893755295421,4.0,118.46948
649,21.912816701820585,1.0714495513383981,21.7777608207616,2.164662513155483,4.0,118.46948
650,21.946580672085332,1.1305858026494895,21.811524791026347,2.0307009224456984,4.0,118.46948
651,21.98034464235008,0.9290380713374613,22.115400523409065,-0.01731151748905692,-4.0,-118.46948
652,22.014108612614827,0.5961835638288159,22.149164493673812,-0.4095708673723058,-4.0,-118.46948
653,22.047872582879574,0.281090850274663,22.18292846393856,-0.857496344854402,-4.0,-118.46948
654,22.08163655314432,0.09102594144627775,22.216692434203306,-1.289907196108499,-4.0,-118.46948
655,22.115400523409065,0.05991331717038407,22.25045640446805,-1.6274759999547816,-4.0,-118.46948
656,22.149164493673812,0.15050205290909116,22.284220374732797,-1.774850310665783,-4.0,-118.46948
657,22.18292846393856,0.277019813260506,22.35174831526229,-1.157453680394774,-5.0,-148.08685
658,22.216692434203306,0.3367102947775582,22.38551228552704,-0.3872625844345337,-5.0,-148.08685
659,22.250456404468054,0.24788941408058807,22.419276255791786,0.5108947125187163,-5.0,-148.08685
660,22.2842203747328,-0.01135078519699184,22.453040226056533,1.2988128518451925,-5.0,-148.08685
661,22.317984344997548,-0.38346208721956393,22.48680419632128,1.7595943482561607,-5.0,-148.08685
662,22.35174831526229,-0.7504239790307037,22.520568166586024,1.7945311258102603,-5.0,-148.08685
663,22.38551228552704,-0.9889848019003187,22.55433213685077,1.4652819904891154,-5.0,-148.08685
664,22.419276255791786,-1.0343488340552507,22.58809610711552,0.9567249119156568,-5.0,-148.08685
665,22.453040226056533,-0.9142133352231435,22.621860077380266,0.4827397803887977,-5.0,-148.08685
666,22.48680419632128,-0.7272075665635317,22.655624047645013,0.18803614237364977,-5.0,-148.08685
667,22.520568166586028,-0.5746762673284377,22.68938801790976,0.09679891660453639,-5.0,-148.08685
668,22.55433213685077,-0.4931313662920671,22.723151988174504,0.1281686623512546,-5.0,-148.08685
669,22.58809610711552,-0.4396747383019178,22.75691595843925,0.15973726020062157,-5.0,-148.08685
670,22.621860077380266,-0.34045043606785547,22.790679928703998,0.0965335239282281,-5.0,-148.08685
671,22.655624047645013,-0.15776855899276382,22.55433213685077,1.4652819904891154,3.0,88.85211000000001
672,22.68938801790976,0.08324897181705013,22.58809610711552,0.9567249119156568,3.0,88.85211000000001
673,22.723151988174507,0.327538324582675,22.621860077380266,0.4827397803887977,3.0,88.85211000000001
674,22.756915958439254,0.5446741858873457,22.89197183949824,-0.7310326587575868,-4.0,-118.46948
675,22.790679928703998,0.7496706084080467,22.925735809762983,-1.0925386034980353,-4.0,-118.46948
676,22.824443898968745,0.9719354786440669,22.95949978002773,-1.4323428816198844,-4.0,-118.46948
677,22.858207869233492,1.2047566184193892,22.993263750292478,-1.696997729534837,-4.0,-118.46948
678,22.89197183949824,1.3808995175811871,23.027027720557225,-1.7993127396387059,-4.0,-118.46948
679,22.925735809762987,1.393659414501802,23.060791690821972,-1.6356098292099344,-4.0,-118.46948
680,22.959499780027734,1.1515121271851336,23.128319631351467,-0.35119418519950124,-5.0,-148.08685
681,22.99326375029248,0.6388608317271247,23.162083601616214,0.5716511802595818,-5.0,-148.08685
682,23.027027720557225,-0.049257314902737014,23.195847571880957,1.386534013388931,-5.0,-148.08685
683,23.060791690821972,-0.7250830085783873,23.229611542145705,1.8723961464866576,-5.0,-148.08685
684,23.09455566108672,-1.1803021125363402,23.26337551241045,1.9288709289628196,-5.0,-148.08685
685,23.128319631351467,-1.2775536413120656,23.2971394826752,1.6189553603258637,-5.0,-148.08685
686,23.162083601616214,-1.0094895647864512,23.330903452939946,1.1295147846509208,-5.0,-148.08685
687,23.19584757188096,-0.49576224491629417,23.364667423204693,0.6740250583134024,-5.0,-148.08685
688,23.229611542145705,0.07139522240649253,23.398431393469437,0.39322091604808396,-5.0,-148.08685
689,23.26337551241045,0.5010852005265595,23.432195363734184,0.30563640102633693,-5.0,-148.08685
690,23.2971394826752,0.6700576167876758,23.46595933399893,0.32700716317053635,-5.0,-148.08685
691,23.330903452939946,0.5621288481456254,23.229611542145705,1.8723961464866576,3.0,88.85211000000001
692,23.364667423204693,0.2637261048616564,23.26337551241045,1.9288709289628196,3.0,88.85211000000001
693,23.39843139346944,-0.08632987799884222,23.2971394826752,1.6189553603258637,3.0,88.85211000000001
694,23.432195363734188,-0.3636686032694414,23.330903452939946,1.1295147846509208,3.0,88.85211000000001
695,23.46595933399893,-0.4985318007329942,23.36466742320469,0.6740250583134504,3.0,88.85211000000001
696,23.49972330426368,-0.4732776630472837,23.398431393469437,0.39322091604808396,3.0,88.85211000000001
697,23.533487274528426,-0.30326968761308054,23.432195363734184,0.30563640102633693,3.0,88.85211000000001
698,23.567251244793173,-0.034599330407279284,23.46595933399893,0.32700716317053635,3.0,88.85211000000001
699,23.60101521505792,0.2423209771129669,23.49972330426368,0.3372590763441524,3.0,88.85211000000001
700,23.634779185322667,0.3966827567975567,23.533487274528426,0.2504033427736126,3.0,88.85211000000001
701,23.668543155587415,0.3033560371681584,23.567251244793173,0.048047163886499517,3.0,88.85211000000001
702,23.70230712585216,-0.08520930726077595,23.601015215057917,-0.23480450478710016,3.0,88.85211000000001
703,23.736071096116905,-0.6891013286398182,23.634779185322664,-0.5515520696924966,3.0,88.85211000000001
704,23.769835066381653,-1.3135654707782927,23.66854315558741,-0.877864529895297,3.0,88.85211000000001
705,23.8035990366464,-1.7252302054998074,23.70230712585216,-1.211107827350894,3.0,88.85211000000001
706,23.837363006911147,-1.752539190358035,22.99326375029248,-1.6969977295348648,25.0,740.43425
707,23.871126977175894,-1.3567070520372893,23.060791690821976,-1.6356098292098824,24.0,710.8168800000001
708,23.904890947440638,-0.6386372406713671,23.09455566108672,-1.1407775273159522,24.0,710.8168800000001
709,23.938654917705385,0.213421232454387,23.128319631351467,-0.35119418519950124,24.0,710.8168800000001
710,23.972418887970132,0.9971761101921669,23.162083601616214,0.5716511802595818,24.0,710.8168800000001
711,24.00618285823488,1.5496778495813655,23.19584757188096,1.3865340133890167,24.0,710.8168800000001
712,24.039946828499627,1.7701382147545934,23.229611542145708,1.8723961464866636,24.0,710.8168800000001
713,24.073710798764374,1.6325311975790786,23.263375512410455,1.928870928962787,24.0,710.8168800000001
714,24.10747476902912,1.2037520595542823,23.297139482675203,1.6189553603258122,24.0,710.8168800000001
715,24.141238739293865,0.6481234897869476,23.330903452939946,1.1295147846509208,24.0,710.8168800000001
716,24.175002709558612,0.18160971873092113,23.330903452939946,1.1295147846509208,25.0,740.43425
717,24.20876667982336,-0.02605851292355666,23.364667423204693,0.6740250583134024,25.0,740.43425
718,24.242530650088106,0.055303862500155766,23.39843139346944,0.3932209160480544,25.0,740.43425
719,24.276294620352854,0.29979841949139496,23.465959333998935,0.3270071631705374,24.0,710.8168800000001
720,24.3100585906176,0.505555253511697,24.478878441941333,-1.6321815407419717,-5.0,-148.08685
721,24.343822560882344,0.5180727312143348,24.512642412206077,-1.830780894441062,-5.0,-148.08685
722,24.37758653114709,0.31351334391025015,24.546406382470824,-1.805717974682795,-5.0,-148.08685
723,24.41135050141184,-0.008166825418742762,23.567251244793173,0.048047163886499517,25.0,740.43425
724,24.445114471676586,-0.30533612666748383,23.60101521505792,-0.23480450478712994,25.0,740.43425
725,24.478878441941333,-0.4886098410974535,23.634779185322667,-0.5515520696925299,25.0,740.43425
726,24.51264241220608,-0.5626683538648597,24.41135050141184,-0.9337887054199241,3.0,88.85211000000001
727,24.546406382470828,-0.5954951276746692,24.445114471676586,-1.3111014172287563,3.0,88.85211000000001
728,24.58017035273557,-0.6469739306983202,24.47887844194133,-1.632181540741938,3.0,88.85211000000001
729,24.61393432300032,-0.7133710603192972,24.512642412206077,-1.830780894441062,3.0,88.85211000000001
730,24.647698293265066,-0.7286612842648423,24.546406382470824,-1.805717974682795,3.0,88.85211000000001
731,24.681462263529813,-0.6210703817581343,24.58017035273557,-1.4606157067147658,3.0,88.85211000000001
732,24.71522623379456,-0.3805765859971173,24.61393432300032,-0.7749193751401622,3.0,88.85211000000001
733,24.748990204059307,-0.08089266060243468,24.91781005538304,0.1599420257993129,-5.0,-148.08685
734,24.782754174324054,0.16687619757164734,24.951574025647787,0.1826727349683279,-5.0,-148.08685
735,24.816518144588798,0.29342439990645586,25.49179754988373,1.5380241801715628,-20.0,-592.3474
736,24.850282114853545,0.31587739655601504,25.52556152014848,1.1922949088515669,-20.0,-592.3474
737,24.884046085118293,0.3090933008559105,24.78275417432405,1.735366008911476,3.0,88.85211000000001
738,24.91781005538304,0.33105324372203204,24.816518144588798,1.239690330965684,3.0,88.85211000000001
739,24.951574025647787,0.3711152926714142,24.850282114853545,0.699569225133425,3.0,88.85211000000001
740,24.985337995912534,0.3673597622222642,24.884046085118293,0.31399527296749236,3.0,88.85211000000001
741,25.019101966177278,0.27448440814052943,25.660617401207464,0.13642660434403645,-19.0,-562.73003
742,25.052865936442025,0.11630613427934698,25.69438137147221,0.15274332995024675,-19.0,-562.73003
743,25.086629906706772,-0.028698118692804652,25.72814534173696,0.12615879619566145,-19.0,-562.73003
744,25.12039387697152,-0.09612773005492282,25.761909312001706,-0.00015747706633267183,-19.0,-562.73003
745,25.154157847236267,-0.09407505636025934,25.795673282266453,-0.21994645724456105,-19.0,-562.73003
746,25.187921817501014,-0.09810984215663705,25.8294372525312,-0.4870618535340752,-19.0,-562.73003
747,25.22168578776576,-0.1895865997965119,25.863201222795947,-0.7545996289353419,-19.0,-562.73003
748,25.255449758030505,-0.3913592162758202,25.89696519306069,-0.9985704655718215,-19.0,-562.73003
749,25.289213728295252,-0.6496232606207789,25.930729163325438,-1.2096383275109577,-19.0,-562.73003
750,25.32297769856,-0.866982637868149,25.964493133590185,-1.3630679325174815,-19.0,-562.73003
751,25.356741668824746,-0.9549937883937318,25.998257103854932,-1.3967289655760848,-19.0,-562.73003
752,25.390505639089493,-0.872492025364052,26.03202107411968,-1.2246487123659202,-19.0,-562.73003
753,25.42426960935424,-0.6367819546581103,26.065785044384427,-0.7882672587225983,-19.0,-562.73003
754,25.458033579618988,-0.31058416508324693,26.099549014649174,-0.1155000990856794,-19.0,-562.73003
755,25.49179754988373,0.027443402501931807,26.133312984913918,0.6566260294261067,-19.0,-562.73003
756,25.52556152014848,0.3157646415764756,26.167076955178665,1.3220892518322804,-19.0,-562.73003
757,25.559325490413226,0.530127650290699,26.200840925443412,1.6943348592977872,-19.0,-562.73003
758,25.593089460677973,0.6822753539481473,26.23460489570816,1.6940422158495434,-19.0,-562.73003
759,25.62685343094272,0.8029701344943765,26.268368865972906,1.3845176761567415,-19.0,-562.73003
760,25.660617401207467,0.9211527202712866,26.302132836237654,0.9344776015984344,-19.0,-562.73003
761,25.69438137147221,1.0474965758075239,26.335896806502397,0.5311876006140633,-19.0,-562.73003
762,25.72814534173696,1.1668133049273235,26.369660776767144,0.2936118840376676,-19.0,-562.73003
763,25.761909312001706,1.2422239203213408,26.40342474703189,0.23080491743400258,-19.0,-562.73003
764,25.795673282266453,1.2301661298613904,26.43718871729664,0.26118918259920376,-19.0,-562.73003
765,25.8294372525312,1.0991612743315144,26.470952687561386,0.273324304738279,-19.0,-562.73003
766,25.863201222795947,0.8425253044800898,26.504716657826133,0.18876646306152234,-19.0,-562.73003
767,25.896965193060694,0.4790967831065387,25.76190931200171,-0.00015747706635579848,4.0,118.46948
768,25.930729163325438,0.04384838795115757,25.795673282266453,-0.21994645724456105,4.0,118.46948
769,25.964493133590185,-0.4237512945148987,25.8294372525312,-0.4870618535340752,4.0,118.46948
770,25.998257103854932,-0.8859833274926675,25.8294372525312,-0.4870618535340752,5.0,148.08685
771,26.03202107411968,-1.3055583517785432,26.63977253888512,-0.8843986838650932,-18.0,-533.11266
772,26.065785044384427,-1.6402056661205544,26.673536509149866,-1.1819002772189142,-18.0,-533.11266
773,26.099549014649174,-1.8397813949939126,25.93072916332544,-1.2096383275109739,5.0,148.08685
774,26.13331298491392,-1.852984229419627,25.96449313359019,-1.363067932517485,5.0,148.08685
775,26.167076955178665,-1.6463877549822454,25.998257103854932,-1.3967289655760848,5.0,148.08685
776,26.200840925443412,-1.2284713801077227,26.03202107411968,-1.2246487123659202,5.0,148.08685
777,26.23460489570816,-0.6629156928491456,26.065785044384427,-0.7882672587225983,5.0,148.08685
778,26.268368865972906,-0.05837842770986105,26.099549014649174,-0.1155000990856794,5.0,148.08685
779,26.302132836237654,0.4639215740257631,26.13331298491392,0.6566260294261879,5.0,148.08685
780,26.3358968065024,0.8092011963983481,26.16707695517867,1.3220892518323195,5.0,148.08685
781,26.369660776767144,0.9356817085237938,26.200840925443412,1.6943348592977872,5.0,148.08685
782,26.40342474703189,0.8592380862976552,26.23460489570816,1.6940422158495434,5.0,148.08685
783,26.43718871729664,0.6404747619978068,26.268368865972906,1.3845176761567415,5.0,148.08685
784,26.470952687561386,0.3652789662499285,26.302132836237654,0.9344776015984344,5.0,148.08685
785,26.504716657826133,0.12627693402274287,26.3358968065024,0.5311876006140209,5.0,148.08685
786,26.53848062809088,0.004898300574123208,26.369660776767148,0.293611884037661,5.0,148.08685
787,26.572244598355628,0.05019409582686842,26.403424747031895,0.23080491743400577,5.0,148.08685
788,26.60600856862037,0.2559610328634931,26.43718871729664,0.26118918259920376,5.0,148.08685
789,26.63977253888512,0.5492074093113858,26.470952687561386,0.273324304738279,5.0,148.08685
790,26.673536509149866,0.807717169648069,26.504716657826133,0.18876646306152234,5.0,148.08685
791,26.707300479414613,0.9101689336202197,26.53848062809088,-0.007632509338761508,5.0,148.08685
792,26.74106444967936,0.7948816064525733,26.572244598355628,-0.2804170981567908,5.0,148.08685
793,26.774828419944107,0.488300737324149,26.606008568620375,-0.5818930634590987,5.0,148.08685
794,26.808592390208855,0.08294881917816528,26.639772538885122,-0.8843986838651245,5.0,148.08685
795,26.842356360473598,-0.3147008251921669,26.673536509149866,-1.1819002772189142,5.0,148.08685
796,26.876120330738345,-0.6237716092802301,26.707300479414613,-1.4605438337854417,5.0,148.08685
797,26.909884301003093,-0.7952398427894687,26.74106444967936,-1.6636888989603436,5.0,148.08685
798,26.94364827126784,-0.804314372050607,26.774828419944107,-1.6864942296956213,5.0,148.08685
799,26.977412241532587,-0.657225620882375,26.808592390208855,-1.418653475971221,5.0,148.08685
800,27.011176211797334,-0.40926535042930356,26.8423563604736,-0.8187149938412502,5.0,148.08685
801,27.044940182062078,-0.16182878843814397,26.876120330738345,0.02699374169342933,5.0,148.08685
802,27.078704152326825,-0.01796225308324195,26.909884301003093,0.9083125883731853,5.0,148.08685
803,27.112468122591572,-0.018040917860253376,26.94364827126784,1.56990321693004,5.0,148.08685
804,27.14623209285632,-0.10630030431576029,26.977412241532587,1.8268043328122536,5.0,148.08685
805,27.179996063121067,-0.16370861414631113,27.011176211797334,1.6512934037466143,5.0,148.08685
806,27.213760033385814,-0.09196757380204469,27.04494018206208,1.1805650457426835,5.0,148.08685
807,27.24752400365056,0.11062635143709455,27.07870415232683,0.6422174547022971,5.0,148.08685
808,27.281287973915305,0.3397535359890658,27.112468122591572,0.2418903586859168,5.0,148.08685
809,27.315051944180052,0.4532716123035096,27.14623209285632,0.07508141783712946,5.0,148.08685
810,27.3488159144448,0.37048531642991755,27.179996063121067,0.10544340333663003,5.0,148.08685
811,27.382579884709546,0.13130362332693898,27.213760033385814,0.21035320524312903,5.0,148.08685
812,27.416343854974293,-0.12822343099279498,27.24752400365056,0.25789325277971437,5.0,148.08685
813,27.45010782523904,-0.2678450560902885,27.28128797391531,0.16867563904743277,5.0,148.08685
814,27.483871795503788,-0.23769653873388305,27.315051944180055,-0.06551248459415906,5.0,148.08685
815,27.51763576576853,-0.10752016377608312,27.3488159144448,-0.40196829466470907,5.0,148.08685
816,27.55139973603328,-0.009229818518430891,27.382579884709546,-0.7789583322034296,5.0,148.08685
817,27.585163706298026,-0.03600108736510072,27.416343854974293,-1.132693204938726,5.0,148.08685
818,27.618927676562773,-0.17393580451578308,27.45010782523904,-1.3938334414793347,5.0,148.08685
819,27.65269164682752,-0.3172325613220052,27.483871795503788,-1.4811271350064457,5.0,148.08685
820,27.686455617092268,-0.35298631189495494,27.821511498151253,0.3480389162879688,-4.0,-118.46948
821,27.72021958735701,-0.24617913758604554,27.855275468415996,0.11344999426125316,-4.0,-118.46948
822,27.75398355762176,-0.055601786488292566,27.889039438680744,0.050083291304740235,-4.0,-118.46948
823,27.787747527886506,0.1283446758345141,27.618927676562773,0.5958023692920427,5.0,148.08685
824,27.821511498151253,0.2645240570429621,27.65269164682752,1.2379697784810113,5.0,148.08685
825,27.855275468416,0.38712820132666015,27.686455617092268,1.574579606459147,5.0,148.08685
826,27.889039438680747,0.5555549217719201,27.720219587357015,1.5398527933541353,5.0,148.08685
827,27.922803408945494,0.7761004181511102,27.753983557621762,1.207774729482625,5.0,148.08685
828,27.956567379210238,0.96799742922898,28.091623260269223,-0.7228841910474273,-4.0,-118.46948
829,27.990331349474985,1.0067585553054914,28.564318843975677,0.5780809174387029,-17.0,-503.49529
830,28.024095319739732,0.8119723474281516,28.598082814240424,0.36923898022505497,-17.0,-503.49529
831,28.05785929000448,0.4114176604748537,28.63184678450517,0.29989281786613564,-17.0,-503.49529
832,28.091623260269227,-0.06625101707120695,28.66561075476992,0.28796335659606564,-17.0,-503.49529
833,28.125387230533974,-0.46463139533069187,28.699374725034666,0.24069151319871443,-17.0,-503.49529
834,28.159151200798718,-0.6893837877066956,28.73313869529941,0.10622595597960127,-17.0,-503.49529
835,28.192915171063465,-0.7574864128305013,28.766902665564157,-0.110834240762649,-17.0,-503.49529
836,28.226679141328212,-0.7747489050835672,28.800666635828904,-0.3715123921676084,-17.0,-503.49529
837,28.26044311159296,-0.8545719862696822,28.83443060609365,-0.6396885110115563,-17.0,-503.49529
838,28.294207081857706,-1.0297858864937135,28.8681945763584,-0.904355861297948,-17.0,-503.49529
839,28.327971052122454,-1.2178972441816602,28.901958546623145,-1.1695806037425234,-17.0,-503.49529
840,28.3617350223872,-1.2680723327095094,28.935722516887893,-1.4199561099892304,-17.0,-503.49529
841,28.395498992651945,-1.0634224436486803,28.969486487152636,-1.5906357206413804,-17.0,-503.49529
842,28.42926296291669,-0.6108116726364237,28.226679141328212,-1.534702875130576,6.0,177.70422000000002
843,28.46302693318144,-0.052951821803953074,28.294207081857706,-0.8090772989313032,5.0,148.08685
844,28.496790903446186,0.4117490128233564,28.327971052122454,-0.07526816670806737,5.0,148.08685
845,28.530554873710933,0.6489579989352108,28.3617350223872,0.721609146866995,5.0,148.08685
846,28.56431884397568,0.6641220946980312,28.395498992651948,1.370039930021052,5.0,148.08685
847,28.598082814240428,0.5830810683073178,28.429262962916695,1.7020556705132368,5.0,148.08685
848,28.63184678450517,0.5560137050605154,28.46302693318144,1.6688660836623703,5.0,148.08685
849,28.66561075476992,0.6552907290876517,28.496790903446186,1.3570821958189148,5.0,148.08685
850,28.699374725034666,0.8377349858775196,28.530554873710933,0.9375451432480594,5.0,148.08685
851,28.733138695299413,0.991917117979759,28.56431884397568,0.5780809174386651,5.0,148.08685
852,28.76690266556416,1.027781337060133,28.598082814240428,0.36923898022503304,5.0,148.08685
853,28.800666635828907,0.9379816867765641,28.631846784505175,0.29989281786613436,5.0,148.08685
854,28.83443060609365,0.7888236783441125,28.969486487152636,-1.5906357206413804,-4.0,-118.46948
855,28.8681945763584,0.6564847992694663,29.003250457417384,-1.5732032683290105,-4.0,-118.46948
856,28.901958546623145,0.5627572025871334,28.733138695299413,0.10622595597958712,5.0,148.08685
857,28.935722516887893,0.4575866105749772,28.76690266556416,-0.11083424076267186,5.0,148.08685
858,28.96948648715264,0.2563267088806083,28.76690266556416,-0.11083424076267186,6.0,177.70422000000002
859,29.003250457417387,-0.09829006800373752,28.800666635828907,-0.3715123921676358,6.0,177.70422000000002
860,29.037014427682134,-0.591116055010207,28.834430606093655,-0.6396885110115842,6.0,177.70422000000002
861,29.070778397946878,-1.1310839391755707,28.8681945763584,-0.904355861297948,6.0,177.70422000000002
862,29.104542368211625,-1.5850329876342075,28.901958546623145,-1.1695806037425234,6.0,177.70422000000002
863,29.138306338476372,-1.8268788860218357,28.935722516887893,-1.4199561099892304,6.0,177.70422000000002
864,29.17207030874112,-1.781711277773727,28.96948648715264,-1.5906357206413984,6.0,177.70422000000002
865,29.205834279005867,-1.4535251082389966,29.003250457417387,-1.5732032683290087,6.0,177.70422000000002
866,29.239598249270614,-0.9290851879453845,29.037014427682134,-1.2669803599140321,6.0,177.70422000000002
867,29.27336221953536,-0.3520479011998772,29.07077839794688,-0.6513045334315426,6.0,177.70422000000002
868,29.307126189800105,0.12879301047728084,29.104542368211625,0.16868099496286376,6.0,177.70422000000002
869,29.340890160064852,0.4174492941539901,29.138306338476372,0.9818215692290582,6.0,177.70422000000002
870,29.3746541303296,0.5075359764486668,29.17207030874112,1.5562969928883557,6.0,177.70422000000002
871,29.408418100594346,0.47841536124245093,29.205834279005867,1.7461254618224327,6.0,177.70422000000002
872,29.442182070859094,0.44869473321420106,29.239598249270614,1.5573995889632117,6.0,177.70422000000002
873,29.47594604112384,0.5063690780633835,29.27336221953536,1.1363031325647779,6.0,177.70422000000002
874,29.509710011388584,0.6539240568480276,29.307126189800105,0.6882117316505623,6.0,177.70422000000002
875,29.54347398165333,0.8060414514565075,29.340890160064852,0.376034678779389,6.0,177.70422000000002
876,29.57723795191808,0.8451559704092364,29.712293832977064,-1.3963963647999889,-4.0,-118.46948
877,29.611001922182826,0.6979808118645594,29.74605780324181,-1.3785977626343762,-4.0,-118.46948
878,29.644765892447573,0.3828351638222522,29.77982177350656,-1.1677896861522188,-4.0,-118.46948
879,29.67852986271232,0.0022748089497420508,29.813585743771306,-0.7193564490418043,-4.0,-118.46948
880,29.712293832977068,-0.3087095238176665,29.847349714036053,-0.06547065819316439,-4.0,-118.46948
881,29.74605780324181,-0.4486714477504854,29.881113684300797,0.6651447306786396,-4.0,-118.46948
882,29.77982177350656,-0.39782139797161825,29.914877654565544,1.2839511132758121,-4.0,-118.46948
883,29.813585743771306,-0.22361912872411985,29.94864162483029,1.6229539831053317,-4.0,-118.46948
884,29.847349714036053,-0.03713380830963941,29.982405595095038,1.6138491153925307,-4.0,-118.46948
885,29.8811136843008,0.07556231783637132,30.016169565359785,1.3184246120005796,-4.0,-118.46948
886,29.914877654565547,0.09960919824527739,30.049933535624533,0.8921051799846484,-4.0,-118.46948
887,29.948641624830294,0.08228644681722302,30.08369750588928,0.503259438884797,-4.0,-118.46948
888,29.982405595095038,0.08184538368752019,30.117461476154023,0.2554494789437456,-4.0,-118.46948
889,30.016169565359785,0.12054415022512333,30.15122544641877,0.15388899323931934,-4.0,-118.46948
890,30.049933535624533,0.17642813423436549,30.184989416683518,0.1275390281610757,-4.0,-118.46948
891,30.08369750588928,0.2092946421438971,30.218753386948265,0.08517845709911992,-4.0,-118.46948
892,30.117461476154027,0.1917693651188982,30.252517357213012,-0.03213476532466924,-4.0,-118.46948
893,30.151225446418774,0.12372645413893726,30.28628132747776,-0.23085055128450538,-4.0,-118.46948
894,30.184989416683518,0.028767140245544682,30.320045297742503,-0.4803291380318322,-4.0,-118.46948
895,30.218753386948265,-0.05824540355382398,30.35380926800725,-0.7435304439075805,-4.0,-118.46948
896,30.252517357213012,-0.10582703782152854,30.353809268007254,-0.7435304439076083,-3.0,-88.85211000000001
897,30.28628132747776,-0.09900270287088571,30.387573238272,-0.9958241531946289,-3.0,-88.85211000000001
898,30.320045297742507,-0.04586538669366752,30.8940327922432,0.2760461778064876,-17.0,-503.49529
899,30.353809268007254,0.026742386103554838,31.231672494890667,-1.191799768017493,-26.0,-770.0516200000001
900,30.387573238272,0.08489058568180097,31.265436465155414,-1.3699041538335628,-26.0,-770.0516200000001
901,30.421337208536745,0.09677462420116317,31.299200435420158,-1.411412152689859,-26.0,-770.0516200000001
902,30.455101178801492,0.03584269799648006,31.332964405684905,-1.1904072928378286,-26.0,-770.0516200000001
903,30.48886514906624,-0.11456756269237935,31.366728375949652,-0.6569410925226746,-26.0,-770.0516200000001
904,30.522629119330986,-0.3487293262066883,31.4004923462144,0.10894314065850304,-26.0,-770.0516200000001
905,30.556393089595733,-0.6255900990445639,31.434256316479146,0.9106771700523508,-26.0,-770.0516200000001
906,30.59015705986048,-0.8711741666453979,31.468020286743894,1.5167583374259304,-26.0,-770.0516200000001
907,30.623921030125228,-1.004508671391771,31.50178425700864,1.7673774828508877,-26.0,-770.0516200000001
908,30.65768500038997,-0.9779417796693382,31.535548227273384,1.6456586666091964,-26.0,-770.0516200000001
909,30.69144897065472,-0.8077791749116259,31.56931219753813,1.2744462953287083,-26.0,-770.0516200000001
910,30.725212940919466,-0.569580890806689,31.60307616780288,0.8443521523515524,-26.0,-770.0516200000001
911,30.758976911184213,-0.3516774395434512,31.636840138067626,0.516967126895763,-26.0,-770.0516200000001
912,30.79274088144896,-0.1943788193613639,31.670604108332373,0.356295853064948,-26.0,-770.0516200000001
913,30.826504851713707,-0.06295294056639925,30.92779676250795,0.286177684975686,-3.0,-88.85211000000001
914,30.86026882197845,0.11842157296291585,30.961560732772693,0.24949310416497825,-3.0,-88.85211000000001
915,30.8940327922432,0.39561207634930556,30.99532470303744,0.11344700217358944,-3.0,-88.85211000000001
916,30.927796762507946,0.7342532991519147,31.029088673302187,-0.10725640288549655,-3.0,-88.85211000000001
917,30.961560732772693,1.0326186612754893,31.062852643566934,-0.351902202661928,-3.0,-88.85211000000001
918,30.99532470303744,1.1893251649404055,31.09661661383168,-0.5604036230251079,-3.0,-88.85211000000001
919,31.029088673302187,1.1742228570984643,31.13038058409643,-0.7140055597144399,-3.0,-88.85211000000001
920,31.062852643566934,1.0486772461992684,31.164144554361176,-0.8433914081265682,-3.0,-88.85211000000001
921,31.096616613831678,0.9206560772583658,31.19790852462592,-0.9975455224171349,-3.0,-88.85211000000001
922,31.130380584096425,0.868622193248432,31.231672494890667,-1.191799768017493,-3.0,-88.85211000000001
923,31.164144554361172,0.8884965810897922,31.265436465155414,-1.3699041538335628,-3.0,-88.85211000000001
924,31.19790852462592,0.896856135837897,31.29920043542016,-1.4114121526898358,-3.0,-88.85211000000001
925,31.231672494890667,0.7819493201692294,31.33296440568491,-1.1904072928377725,-3.0,-88.85211000000001
926,31.265436465155414,0.46688898944107965,31.062852643566934,-0.351902202661928,6.0,177.70422000000002
927,31.299200435420158,-0.04714560502979781,30.320045297742503,-0.4803291380318322,29.0,858.90373
928,31.332964405684905,-0.6706792759817456,30.35380926800725,-0.7435304439075805,29.0,858.90373
929,31.366728375949652,-1.2490816397537734,30.387573238271997,-0.9958241531946024,29.0,858.90373
930,31.4004923462144,-1.614473496241465,30.421337208536745,-1.218106391017826,29.0,858.90373
931,31.434256316479146,-1.6529018608645656,30.455101178801492,-1.3738148202310265,29.0,858.90373
932,31.468020286743894,-1.3610182749710784,30.48886514906624,-1.39579625097054,29.0,858.90373
933,31.50178425700864,-0.8612578966032601,30.826504851713707,0.49503715063974274,20.0,592.3474
934,31.535548227273384,-0.3550100524119519,30.86026882197845,0.3170015592796253,20.0,592.3474
935,31.56931219753813,-0.024918505510831218,31.670604108332373,0.356295853064948,-3.0,-88.85211000000001
936,31.60307616780288,0.061050112555058204,31.70436807859712,0.319929784302698,-3.0,-88.85211000000001
937,31.636840138067626,-0.022177017136353002,30.961560732772693,0.24949310416497825,20.0,592.3474
938,31.670604108332373,-0.12003393925497645,30.99532470303744,0.11344700217358944,20.0,592.3474
939,31.70436807859712,-0.10838639107822291,31.029088673302187,-0.10725640288549655,20.0,592.3474
940,31.738132048861868,0.027546712490553692,31.062852643566934,-0.351902202661928,20.0,592.3474
941,31.77189601912661,0.19584684945268227,31.096616613831678,-0.5604036230250917,20.0,592.3474
942,31.80565998939136,0.2726958286218882,31.130380584096425,-0.7140055597144263,20.0,592.3474
943,31.839423959656106,0.19313764586506846,31.164144554361172,-0.843391408126552,20.0,592.3474
944,31.873187929920853,-0.003915313201582823,31.636840138067626,0.516967126895763,7.0,207.32159000000001
945,31.9069519001856,-0.20246494129006917,31.670604108332373,0.356295853064948,7.0,207.32159000000001
946,31.940715870450347,-0.28411476746832903,32.042007781244585,-1.4751973670332714,-3.0,-88.85211000000001
947,31.97447984071509,-0.19883805148428194,32.07577175150933,-1.4242000054226611,-3.0,-88.85211000000001
948,32.00824381097984,0.010587850773274565,32.10953572177408,-1.120394766645999,-3.0,-88.85211000000001
949,32.042007781244585,0.24059229784636582,32.14329969203882,-0.5396334773182405,-3.0,-88.85211000000001
950,32.075771751509336,0.3921543721865976,32.177063662303574,0.22424054416441128,-3.0,-88.85211000000001
951,32.10953572177408,0.4264442222812588,31.873187929920853,-0.5363518247043358,7.0,207.32159000000001
952,32.14329969203882,0.3738689495308483,31.906951900185597,-0.7927111292731575,7.0,207.32159000000001
953,32.177063662303574,0.2947727271953886,31.9069519001856,-0.7927111292731844,8.0,236.93896
954,32.21082763256832,0.22800481687536495,31.940715870450344,-1.0071547571549597,8.0,236.93896
955,32.24459160283307,0.16871344438339092,31.974479840715095,-1.1973852495809865,8.0,236.93896
956,32.27835557309781,0.0869723986024902,32.37964748389205,0.6536569360984603,-3.0,-88.85211000000001
957,32.312119543362556,-0.03414374086825179,32.413411454156794,0.36206277607943554,-3.0,-88.85211000000001
958,32.34588351362731,-0.1718357330517789,32.447175424421545,0.24344715523502758,-3.0,-88.85211000000001
959,32.37964748389205,-0.26511266873890244,32.48093939468629,0.24086437890241677,-3.0,-88.85211000000001
960,32.4134114541568,-0.2424655612415202,32.51470336495104,0.24975832406982182,-3.0,-88.85211000000001
961,32.447175424421545,-0.06282050464519413,32.54846733521578,0.1836501345572483,-3.0,-88.85211000000001
962,32.480939394686295,0.24869574113068768,32.58223130548053,0.01291990186591704,-3.0,-88.85211000000001
963,32.51470336495104,0.5933396179077179,32.58223130548053,0.01291990186591704,-2.0,-59.23474
964,32.54846733521578,0.8358015875959566,32.61599527574528,-0.23867529238923654,-2.0,-59.23474
965,32.58223130548053,0.8742155421273545,32.64975924601003,-0.5255027191096632,-2.0,-59.23474
966,32.61599527574528,0.7013226769690609,32.68352321627477,-0.809694564255261,-2.0,-59.23474
967,32.64975924601003,0.4130752464108043,32.71728718653952,-1.0663891711176428,-2.0,-59.23474
968,32.68352321627477,0.1536737220688811,32.751051156804266,-1.2654080767590836,-2.0,-59.23474
969,32.71728718653952,0.027512844122347887,32.78481512706902,-1.3520443591564133,-2.0,-59.23474
970,32.751051156804266,0.030633645924296782,32.81857909733376,-1.2533364402800449,-2.0,-59.23474
971,32.78481512706901,0.04622476361814779,32.852343067598504,-0.917239021053278,-2.0,-59.23474
972,32.81857909733376,-0.08664558396548717,32.886107037863255,-0.36278115060050703,-2.0,-59.23474
973,32.852343067598504,-0.4680230842577958,32.919871008128,0.29756121983023504,-2.0,-59.23474
974,32.886107037863255,-1.059413673119334,32.95363497839275,0.8894926869601051,-2.0,-59.23474
975,32.919871008128,-1.6822488899839525,32.98739894865749,1.252189058505513,-2.0,-59.23474
976,32.95363497839275,-2.095114820172478,33.02116291892224,1.3138451001436502,-2.0,-59.23474
977,32.98739894865749,-2.1080662490130653,33.05492688918699,1.121516031268222,-2.0,-59.23474
978,33.021162918922236,-1.674715549275972,33.08869085945173,0.8090142308693604,-2.0,-59.23474
979,33.05492688918699,-0.9162042675239764,33.12245482971648,0.5247065346034188,-2.0,-59.23474
980,33.08869085945173,-0.06699563596108231,33.156218799981225,0.3611680397830744,-2.0,-59.23474
981,33.12245482971648,0.6271862114546588,33.189982770245976,0.3221007362894016,-2.0,-59.23474
982,33.156218799981225,1.0069977309234912,33.22374674051072,0.337931628536821,-2.0,-59.23474
983,33.189982770245976,1.0495885382715848,33.25751071077547,0.31560493758478186,-2.0,-59.23474
984,33.22374674051072,0.8585425202107155,33.291274681040214,0.19277367729477135,-2.0,-59.23474
985,33.25751071077546,0.6088374854255817,33.32503865130496,-0.03243500679073659,-2.0,-59.23474
986,33.291274681040214,0.47169185705339817,33.35880262156971,-0.30941945861466924,-2.0,-59.23474
987,33.32503865130496,0.54286808561145,33.39256659183445,-0.5724150722084203,-2.0,-59.23474
988,33.35880262156971,0.8000219148100733,33.4263305620992,-0.7820863124527133,-2.0,-59.23474
989,33.39256659183445,1.113814476511022,33.46009453236395,-0.9442497348918398,-2.0,-59.23474
990,33.4263305620992,1.3155320448448138,33.4938585026287,-1.0926255546643506,-2.0,-59.23474
991,33.46009453236395,1.2871583084137033,33.52762247289344,-1.2456082155981056,-2.0,-59.23474
992,33.49385850262869,1.0206555201263523,33.561386443158185,-1.3664269867475811,-2.0,-59.23474
993,33.52762247289344,0.6123488685092258,33.32503865130496,-0.03243500679073659,6.0,177.70422000000002
994,33.561386443158185,0.20147753961167142,33.3588026215697,-0.3094194586146109,6.0,177.70422000000002
995,33.595150413422935,-0.10531567896772706,33.39256659183445,-0.5724150722084203,6.0,177.70422000000002
996,33.62891438368768,-0.28104440763406024,33.426330562099196,-0.7820863124526691,6.0,177.70422000000002
997,33.66267835395242,-0.3774326336650024,33.46009453236394,-0.9442497348918057,6.0,177.70422000000002
998,33.69644232421717,-0.48278465458080794,33.49385850262869,-1.0926255546643184,6.0,177.70422000000002
999,33.73020629448192,-0.6641863864337032,33.527622472893434,-1.2456082155980734,6.0,177.70422000000002
1000,33.76397026474667,-0.9257683145128394,33.561386443158185,-1.3664269867475811,6.0,177.70422000000002
1001,33.79773423501141,-1.204551904052024,33.59515041342293,-1.359006358098834,6.0,177.70422000000002
1002,33.83149820527616,-1.402965998743341,33.62891438368768,-1.112813680426015,6.0,177.70422000000002
1003,33.865262175540906,-1.4368325856278468,33.66267835395242,-0.5770337874813042,6.0,177.70422000000002
1004,33.89902614580565,-1.272391425361276,33.696442324217166,0.1816746813359652,6.0,177.70422000000002
1005,33.9327901160704,-0.9365512106603929,33.73020629448192,0.9813753790681677,6.0,177.70422000000002
1006,33.966554086335144,-0.5015941313279748,33.76397026474666,1.5960208593608325,6.0,177.70422000000002
1007,34.000318056599895,-0.05789386178947879,33.79773423501141,1.8593226868161858,6.0,177.70422000000002
1008,34.03408202686464,0.31088177402701156,33.831498205276155,1.7417958717425357,6.0,177.70422000000002
1009,34.06784599712939,0.5450250795963676,33.865262175540906,1.357264139877763,6.0,177.70422000000002
1010,34.10160996739413,0.6233679093698822,33.89902614580565,0.897818323954056,6.0,177.70422000000002
1011,34.135373937658876,0.5776577691452391,33.93279011607039,0.5366216087225024,6.0,177.70422000000002
1012,34.16913790792363,0.49342860301944097,33.966554086335144,0.35223968168119574,6.0,177.70422000000002
1013,34.20290187818837,0.4764652663970702,34.00031805659989,0.31121198749683243,6.0,177.70422000000002
1014,34.23666584845312,0.5881646402520997,34.06784599712939,0.24611218649134292,5.0,148.08685
1015,34.270429818717865,0.7938457282368657,34.10160996739413,0.07252479282167815,5.0,148.08685
1016,34.304193788982616,0.9736369329403666,34.13537393765888,-0.1887091251191124,5.0,148.08685
1017,34.33795775924736,0.9942555940420962,34.16913790792363,-0.4784400234236052,5.0,148.08685
1018,34.3717217295121,0.7836250915345611,34.20290187818837,-0.7482744341989117,5.0,148.08685
1019,34.405485699776854,0.3551463321371724,34.23666584845312,-0.9900849992665325,5.0,148.08685
1020,34.4392496700416,-0.21432503167271358,34.270429818717865,-1.2257378636795215,5.0,148.08685
1021,34.47301364030635,-0.8109546592894219,34.304193788982616,-1.463736524801512,5.0,148.08685
1022,34.50677761057109,-1.2935214054364796,34.33795775924736,-1.655075079163238,5.0,148.08685
1023,34.54054158083584,-1.5071849929654295,34.37172172951211,-1.6869276033550753,5.0,148.08685
1024,34.574305551100586,-1.3310336923479529,34.405485699776854,-1.432146613235997,5.0,148.08685
1025,34.60806952136533,-0.7532120924931756,34.4392496700416,-0.8338744647638592,5.0,148.08685
1026,34.64183349163008,0.07659230705703818,34.47301364030635,0.02731577788710882,5.0,148.08685
1027,34.675597461894824,0.8750345777085128,34.50677761057109,0.9354569330864603,5.0,148.08685
1028,34.709361432159575,1.3441644184937878,34.54054158083584,1.6227790755570823,5.0,148.08685
1029,34.74312540242432,1.3211923926740872,34.574305551100586,1.8935897393470433,5.0,148.08685
1030,34.77688937268906,0.8646957357152314,34.60806952136533,1.7175131250929137,5.0,148.08685
1031,34.81065334295381,0.22076667035220576,34.64183349163008,1.2377839392109586,5.0,148.08685
1032,34.84441731321856,-0.30871699473236835,34.675597461894824,0.6917125213077204,5.0,148.08685
1033,34.87818128348331,-0.5159104776737723,34.709361432159575,0.2913719177040563,5.0,148.08685
1034,34.91194525374805,-0.3734326102208406,35.48593274824874,0.1967156153273494,-17.0,-503.49529
1035,34.9457092240128,-0.020217555399029565,35.519696718513494,0.2058191951074488,-17.0,-503.49529
1036,34.979473194277546,0.332512438321665,35.55346068877824,0.241124729793254,-17.0,-503.49529
1037,35.01323716454229,0.514201149011898,34.84441731321856,0.2929450490098316,5.0,148.08685
1038,35.04700113480704,0.46309881628069643,34.87818128348331,0.1731318863175164,5.0,148.08685
1039,35.080765105071784,0.22107467941562586,34.91194525374805,-0.08967683567089689,5.0,148.08685
1040,35.114529075336534,-0.12370082902933643,34.9457092240128,-0.4412856770003172,5.0,148.08685
1041,35.14829304560128,-0.49531250116861925,34.979473194277546,-0.8189417328290404,5.0,148.08685
1042,35.18205701586603,-0.8484036162406822,35.013237164542296,-1.1735098666322499,5.0,148.08685
1043,35.21582098613077,-1.143493527298635,35.04700113480704,-1.4603169063197792,5.0,148.08685
1044,35.249584956395516,-1.314700943465435,35.080765105071784,-1.6161930809187268,5.0,148.08685
1045,35.28334892666027,-1.2728195805582823,35.114529075336534,-1.5550390189180479,5.0,148.08685
1046,35.31711289692501,-0.9558993376988754,35.14829304560128,-1.201830690781234,5.0,148.08685
1047,35.35087686718976,-0.3932826178886007,35.18205701586603,-0.5521043101197655,5.0,148.08685
1048,35.384640837454505,0.27318821773319935,35.21582098613077,0.2849522012699269,5.0,148.08685
1049,35.418404807719256,0.840387293531105,35.24958495639552,1.101122590180569,5.0,148.08685
1050,35.452168777984,1.140125602399178,35.28334892666027,1.6678772026242943,5.0,148.08685
1051,35.48593274824874,1.1182264105654185,35.31711289692501,1.8398980224505948,5.0,148.08685
1052,35.519696718513494,0.8515941973215954,35.35087686718976,1.622879471484582,5.0,148.08685
1053,35.55346068877824,0.5019828269399551,35.384640837454505,1.165088617714941,5.0,148.08685
1054,35.58722465904299,0.23564051709082626,35.418404807719256,0.6784672953883223,5.0,148.08685
1055,35.62098862930773,0.14819681045307898,35.452168777984,0.3353291562572314,5.0,148.08685
1056,35.65475259957248,0.23122214901024543,35.48593274824875,0.19671561532735132,5.0,148.08685
1057,35.688516569837226,0.39549695513699573,35.519696718513494,0.2058191951074488,5.0,148.08685
1058,35.72228054010197,0.5296577005103784,35.55346068877824,0.241124729793254,5.0,148.08685
1059,35.75604451036672,0.5508752046111994,35.58722465904299,0.19247137435099995,5.0,148.08685
1060,35.789808480631464,0.41939914971740533,35.654752599572475,-0.25926421653603426,4.0,118.46948
1061,35.823572450896215,0.1261404635417299,35.688516569837226,-0.5654095348569123,4.0,118.46948
1062,35.85733642116096,-0.3150112270752424,35.72228054010197,-0.8469748767828276,4.0,118.46948
1063,35.89110039142571,-0.852225534141827,35.75604451036672,-1.0894803600945497,4.0,118.46948
1064,35.92486436169045,-1.3757872896219072,35.789808480631464,-1.309485532838711,4.0,118.46948
1065,35.9586283319552,-1.7293608503102689,35.82357245089621,-1.5132763235097164,4.0,118.46948
1066,35.99239230221995,-1.7672610930485375,35.85733642116096,-1.6559220991222812,4.0,118.46948
1067,36.02615627248469,-1.4313451588990036,35.8911003914257,-1.6363971644811688,4.0,118.46948
1068,36.05992024274944,-0.7984352673310597,35.92486436169045,-1.343690764598192,4.0,118.46948
1069,36.093684213014186,-0.061200000767180934,35.9586283319552,-0.733195757495894,4.0,118.46948
1070,36.12744818327893,0.5569669512374565,35.99239230221994,0.11479662217657594,4.0,118.46948
1071,36.16121215354368,0.9098918982778945,36.02615627248469,0.9998313295375648,4.0,118.46948
1072,36.19497612380842,0.9953933000275836,36.059920242749435,1.6782039101354949,4.0,118.46948
1073,36.228740094073174,0.9373230764598579,36.093684213014186,1.9735628231969822,4.0,118.46948
1074,36.26250406433792,0.8929125563507176,36.12744818327893,1.8580483244924035,4.0,118.46948
1075,36.29626803460267,0.9472190341218099,36.16121215354368,1.4574469616289851,4.0,118.46948
1076,36.33003200486741,1.06675771055809,36.19497612380842,0.9798229489251654,4.0,118.46948
1077,36.363795975132156,1.1401471909498466,36.22874009407317,0.6106649245992689,4.0,118.46948
1078,36.39755994539691,1.0676596440468655,36.26250406433792,0.4322356027774713,4.0,118.46948
1079,36.43132391566165,0.8291686383374182,36.29626803460266,0.405648838700347,4.0,118.46948
1080,36.4650878859264,0.48565433195904695,36.33003200486741,0.41639654315171964,4.0,118.46948
1081,36.498851856191145,0.12549254115281774,36.363795975132156,0.3504268064083748,4.0,118.46948
1082,36.532615826455896,-0.19530165014179643,36.43132391566166,-0.1413013105790337,3.0,88.85211000000001
1083,36.56637979672064,-0.47555296867071833,36.4650878859264,-0.46883681998052623,3.0,88.85211000000001
1084,36.60014376698538,-0.7467916787938068,36.498851856191145,-0.7626485174558034,3.0,88.85211000000001
1085,36.633907737250134,-1.0308721202697249,36.532615826455896,-1.005336007652361,3.0,88.85211000000001
1086,36.66767170751488,-1.3079264988046073,36.56637979672064,-1.2235634562635236,3.0,88.85211000000001
1087,36.70143567777963,-1.5124849289808298,36.60014376698539,-1.4453345418551375,3.0,88.85211000000001
1088,36.73519964804437,-1.5600124954944043,36.633907737250134,-1.6470092276262402,3.0,88.85211000000001
1089,36.76896361830912,-1.392930087718433,36.667671707514884,-1.7315126934110647,3.0,88.85211000000001
1090,36.802727588573866,-1.0231178957206661,36.70143567777963,-1.5638137988942864,3.0,88.85211000000001
1091,36.83649155883861,-0.5427096855978595,36.73519964804437,-1.0528088313826731,3.0,88.85211000000001
1092,36.87025552910336,-0.08769896964500683,36.76896361830912,-0.23206830739384632,3.0,88.85211000000001
1093,36.904019499368104,0.23053769624126083,36.802727588573866,0.7175110705497995,3.0,88.85211000000001
1094,36.937783469632855,0.3836673333246301,36.83649155883862,1.5297935988962954,3.0,88.85211000000001
1095,36.9715474398976,0.4354541985854714,36.87025552910336,1.9730252840507447,3.0,88.85211000000001
1096,37.00531141016235,0.4950122774149248,36.90401949936811,1.959629275762056,3.0,88.85211000000001
1097,37.03907538042709,0.6442280857354968,36.937783469632855,1.5823175063431107,3.0,88.85211000000001
1098,37.07283935069184,0.8853349750659975,36.9715474398976,1.057505271630865,3.0,88.85211000000001
1099,37.10660332095659,1.1423296551706517,37.00531141016235,0.6114754426596879,3.0,88.85211000000001
1100,37.14036729122133,1.3130894545405816,37.03907538042709,0.3740257550136001,3.0,88.85211000000001
1101,37.17413126148608,1.3304478191011737,37.072839350691844,0.33415895942018736,3.0,88.85211000000001
1102,37.207895231750825,1.1861926981426365,37.883174637045755,0.3283686965515145,-20.0,-592.3474
1103,37.241659202015576,0.910261243285148,37.91693860731051,0.33537329151319695,-20.0,-592.3474
1104,37.27542317228032,0.5383351812300307,37.95070257757526,0.22934135464980393,-20.0,-592.3474
1105,37.30918714254506,0.10097563120293598,37.24165920201557,-0.5294464319762984,2.0,59.23474
1106,37.342951112809814,-0.366278903644632,37.57929890466304,0.6376744447439966,-7.0,-207.32159000000001
1107,37.37671508307456,-0.814676557328971,38.05199448836949,-0.6412019890424459,-20.0,-592.3474
1108,37.41047905333931,-1.188121528127566,38.085758458634245,-0.9113222580594963,-20.0,-592.3474
1109,37.44424302360405,-1.435325109244945,37.68059081545728,2.024606299082187,-7.0,-207.32159000000001
1110,37.478006993868796,-1.5175940775090395,37.71435478572202,1.7150947015427422,-7.0,-207.32159000000001
1111,37.51177096413355,-1.4129132159196884,37.74811875598677,1.2043616449036063,-7.0,-207.32159000000001
1112,37.54553493439829,-1.1235475143889233,38.25457830995797,-1.7153006987254997,-21.0,-621.96477
1113,37.57929890466304,-0.6877708677376458,38.28834228022272,-1.394205496975363,-21.0,-621.96477
1114,37.613062874927785,-0.18517559628309269,38.322106250487465,-0.7321399667814806,-21.0,-621.96477
1115,37.646826845192535,0.2766336919287796,38.355870220752216,0.16971529918966458,-21.0,-621.96477
1116,37.68059081545728,0.5951182805182318,38.38963419101696,1.0859726059819927,-21.0,-621.96477
1117,37.71435478572202,0.7127918337937832,38.4233981612817,1.758187423099447,-21.0,-621.96477
1118,37.74811875598677,0.6447509434170868,38.457162131546454,2.0131920737329083,-21.0,-621.96477
1119,37.78188272625152,0.4785000670582521,38.4909261018112,1.841340381464073,-21.0,-621.96477
1120,37.81564669651627,0.34189348778066,38.52469007207595,1.3910596205489127,-21.0,-621.96477
1121,37.84941066678101,0.3477661584740227,38.55845404234069,0.8861761659233203,-21.0,-621.96477
1122,37.88317463704576,0.5363119192769649,38.59221801260544,0.5152532653786898,-21.0,-621.96477
1123,37.916938607310506,0.8449858675186225,38.62598198287019,0.3525894025387847,-21.0,-621.96477
1124,37.95070257757525,1.129261456730881,37.883174637045755,0.3283686965515145,2.0,59.23474
1125,37.98446654784,1.2299990578756732,37.916938607310506,0.33537329151321926,2.0,59.23474
1126,38.018230518104744,1.0513275332495893,37.95070257757525,0.229341354649854,2.0,59.23474
1127,38.051994488369495,0.6045336536458393,37.98446654784,-0.008530592836776266,2.0,59.23474
1128,38.08575845863424,-0.0025759524434915866,38.051994488369495,-0.6412019890425125,1.0,29.61737
1129,38.11952242889899,-0.6160066436296071,39.166205507106135,0.6074800868315174,-31.0,-918.13847
1130,38.15328639916373,-1.0946397006107278,39.19996947737088,1.5477887207496976,-31.0,-918.13847
1131,38.187050369428476,-1.3565476370744696,39.23373344763562,2.125808158345205,-31.0,-918.13847
1132,38.22081433969323,-1.4028195581804304,38.18705036942848,-1.575565776750631,1.0,29.61737
1133,38.25457830995797,-1.3080388018071007,38.22081433969323,-1.7348192251159247,1.0,29.61737
1134,38.28834228022272,-1.1706628778365276,38.25457830995798,-1.7153006987254322,1.0,29.61737
1135,38.322106250487465,-1.0434346361556543,38.28834228022272,-1.394205496975363,1.0,29.61737
1136,38.355870220752216,-0.8922332660850316,38.32210625048747,-0.7321399667812909,1.0,29.61737
1137,38.38963419101696,-0.6231744678417825,38.355870220752216,0.16971529918966458,1.0,29.61737
1138,38.4233981612817,-0.16806199058636279,38.38963419101696,1.0859726059819927,1.0,29.61737
1139,38.457162131546454,0.4321940615656443,38.42339816128171,1.7581874230995007,1.0,29.61737
1140,38.4909261018112,1.0124442138493421,38.457162131546454,2.0131920737329083,1.0,29.61737
1141,38.52469007207595,1.3573951159750453,38.490926101811205,1.8413403814639782,1.0,29.61737
1142,38.55845404234069,1.3240372957230473,38.52469007207595,1.3910596205489127,1.0,29.61737
1143,38.592218012605436,0.9349405725158613,38.55845404234069,0.8861761659233203,1.0,29.61737
1144,38.62598198287019,0.3774205851584732,38.59221801260544,0.5152532653786898,1.0,29.61737
1145,38.65974595313493,-0.09671826465243297,38.62598198287019,0.3525894025387847,1.0,29.61737
1146,38.69350992339968,-0.3061598149535276,38.65974595313494,0.3469041847206804,1.0,29.61737
1147,38.727273893664425,-0.22264688621780332,38.69350992339968,0.3739643426111402,1.0,29.61737
1148,38.761037863929175,0.03944669317086999,38.72727389366443,0.3167480564213493,1.0,29.61737
1149,38.79480183419392,0.2989688023299828,38.761037863929175,0.12710065198233972,1.0,29.61737
1150,38.82856580445866,0.39421977435248357,38.79480183419392,-0.16158692656625426,1.0,29.61737
1151,38.86232977472341,0.2439405703901668,38.82856580445867,-0.4709819818995518,1.0,29.61737
1152,38.89609374498816,-0.12652644329318544,38.86232977472341,-0.7361155324236922,1.0,29.61737
1153,38.92985771525291,-0.5951952807849625,38.896093744988164,-0.9466531430311186,1.0,29.61737
1154,38.96362168551765,-0.9882145266663603,38.92985771525291,-1.143541745099514,1.0,29.61737
1155,38.9973856557824,-1.1461963500338346,38.96362168551766,-1.3713598319563731,1.0,29.61737
1156,39.031149626047146,-0.9849304082762091,38.9973856557824,-1.6167462009097828,1.0,29.61737
1157,39.06491359631189,-0.5244966058563584,39.031149626047146,-1.7776856474668383,1.0,29.61737
1158,39.09867756657664,0.12112867618660991,39.0649135963119,-1.695279187481686,1.0,29.61737
1159,39.132441536841384,0.7826180866760285,39.09867756657664,-1.2418869067259763,1.0,29.61737
1160,39.166205507106135,1.2846329797231644,39.13244153684139,-0.41783688250421547,1.0,29.61737
1161,39.19996947737088,1.4943524560272339,39.166205507106135,0.6074800868315174,1.0,29.61737
1162,39.23373344763563,1.3620880202307555,39.199969477370885,1.5477887207498193,1.0,29.61737
1163,39.26749741790037,0.9429637499941871,39.23373344763563,2.1258081583453268,1.0,29.61737
1164,39.301261388165116,0.38480347068389903,39.26749741790037,2.20383954223575,1.0,29.61737
1165,39.33502535842987,-0.12353330506657338,39.30126138816512,1.8445397320346624,1.0,29.61737
1166,39.36878932869461,-0.4276900086021121,39.36878932869461,0.7423299113479295,0.0,0.0
1167,39.40255329895936,-0.47323411372955543,39.40255329895936,0.443071137958915,0.0,0.0
1168,39.436317269224105,-0.32706529537128454,39.436317269224105,0.39680661502687453,0.0,0.0
1169,39.470081239488856,-0.14059942658658614,39.470081239488856,0.4875083356410851,0.0,0.0
1170,39.5038452097536,-0.06849277004569586,39.5038452097536,0.5393523402548263,0.0,0.0
1171,39.53760918001834,-0.1809758521583602,39.5038452097536,0.5393523402548263,1.0,29.61737
1172,39.571373150283094,-0.41881469487072837,39.53760918001835,0.4165968009857591,1.0,29.61737
1173,39.60513712054784,-0.6258989854751908,39.60513712054784,-0.36801185381442636,0.0,0.0
1174,39.63890109081259,-0.6506388796300708,39.63890109081259,-0.8277156960674457,0.0,0.0
1175,39.67266506107733,-0.4546237195777178,39.67266506107733,-1.1901720723418594,0.0,0.0
1176,39.70642903134208,-0.14983891417607917,39.70642903134208,-1.4320126682313479,0.0,0.0
1177,39.740193001606826,0.06881388179585353,39.740193001606826,-1.602008606491118,0.0,0.0
1178,39.77395697187157,0.05139376919470945,39.740193001606826,-1.602008606491118,1.0,29.61737
1179,39.80772094213632,-0.207142531499985,39.77395697187158,-1.764344926046974,1.0,29.61737
1180,39.841484912401064,-0.56036864148094,39.80772094213632,-1.9255807856114695,1.0,29.61737
1181,39.875248882665815,-0.7985566630482437,39.84148491240107,-1.9954319746682057,1.0,29.61737
1182,39.90901285293056,-0.7748550399287267,39.90901285293056,-1.2570450583027657,0.0,0.0
1183,39.9427768231953,-0.49037723086870194,39.90901285293056,-1.2570450583027657,1.0,29.61737
1184,39.97654079346005,-0.08369318349350831,39.94277682319531,-0.31677129280722505,1.0,29.61737
1185,40.0103047637248,0.2662622810012997,39.97654079346005,0.82545189650088,1.0,29.61737
1186,40.04406873398955,0.4530528554132359,40.010304763724804,1.8636345599678588,1.0,29.61737
1187,40.07783270425429,0.4922701060898366,40.04406873398955,2.498867864952599,1.0,29.61737
1188,40.11159667451904,0.48212673087551633,40.11159667451904,2.1795281469360024,0.0,0.0
1189,40.145360644783786,0.5168398441803326,40.145360644783786,1.5327670272170444,0.0,0.0
1190,40.17912461504853,0.6212050662702513,40.17912461504853,0.9264366919783437,0.0,0.0
1191,40.21288858531328,0.7474641628169174,40.21288858531328,0.5538946086793756,0.0,0.0
1192,40.246652555578024,0.8237361932868789,40.246652555578024,0.44347922415858604,0.0,0.0
1193,40.280416525842774,0.8092501694406286,40.24665255557803,0.4434792241585935,1.0,29.61737
1194,40.31418049610752,0.716152043848976,40.280416525842774,0.4788403912560314,1.0,29.61737
1195,40.34794446637227,0.5872072996948593,40.314180496107525,0.4890771947797035,1.0,29.61737
1196,40.38170843663701,0.4484301937078541,40.34794446637227,0.35007915880836254,1.0,29.61737
1197,40.415472406901756,0.2734041564136566,40.38170843663701,0.04031608062214394,1.0,29.61737
1198,40.44923637716651,-0.006322232318321046,40.44923637716651,-0.7908037951286515,0.0,0.0
1199,40.48300034743125,-0.44167774104856794,40.48300034743125,-1.1559075328504886,0.0,0.0
1200,40.516764317696,-0.9982576693240045,40.516764317696,-1.4666976392288689,0.0,0.0
1201,40.550528287960745,-1.5367012210213382,40.550528287960745,-1.751088391449851,0.0,0.0
1202,40.584292258225496,-1.8653552133855844,40.584292258225496,-2.0046519395895777,0.0,0.0
1203,40.61805622849024,-1.8360007399383809,40.61805622849024,-2.147311662571252,0.0,0.0
1204,40.65182019875498,-1.4228220416340096,40.65182019875498,-2.038519544494,0.0,0.0
1205,40.685584169019734,-0.7378904960232596,40.685584169019734,-1.555095939262425,0.0,0.0
1206,40.71934813928448,0.021406243735743822,40.71934813928448,-0.689348747137211,0.0,0.0
1207,40.75311210954923,0.659077871343138,40.75311210954923,0.39927947729492974,0.0,0.0
1208,40.78687607981397,1.055065649289025,40.78687607981397,1.4251342999070518,0.0,0.0
1209,40.82064005007872,1.1946419038671636,40.82064005007872,2.0982637377457456,0.0,0.0
1210,40.854404020343466,1.1454583998045123,40.854404020343466,2.260149971929472,0.0,0.0
1211,40.88816799060821,1.0008016041864884,40.88816799060821,1.9539328435053154,0.0,0.0
1212,40.92193196087296,0.8247281499684673,40.92193196087296,1.3902466522749164,0.0,0.0
1213,40.955695931137704,0.6328467719790128,40.955695931137704,0.8329532565431439,0.0,0.0
1214,40.989459901402455,0.4173299988007259,40.989459901402455,0.4722365946794901,0.0,0.0
1215,41.0232238716672,0.19141679643611756,40.989459901402455,0.4722365946794901,1.0,29.61737
1216,41.05698784193195,0.01264962050598919,41.023223871667206,0.3520902814837087,1.0,29.61737
1217,41.09075181219669,-0.0403916555339907,41.05698784193195,0.3818182820934092,1.0,29.61737
1218,41.12451578246144,0.0752530458959109,41.09075181219669,0.41279227909369043,1.0,29.61737
1219,41.15827975272619,0.32015222204415694,41.124515782461444,0.3297154029994815,1.0,29.61737
1220,41.19204372299093,0.5721182321216781,41.15827975272619,0.1048915477185659,1.0,29.61737
1221,41.22580769325568,0.6729371891347541,41.19204372299094,-0.20855811620206502,1.0,29.61737
1222,41.259571663520425,0.49436983192433503,41.22580769325568,-0.5305477401184978,1.0,29.61737
1223,41.29333563378517,-0.005543535623610641,41.259571663520425,-0.8141807795212007,1.0,29.61737
1224,41.32709960404992,-0.752235183988531,41.293335633785176,-1.0703131566244433,1.0,29.61737
1225,41.36086357431466,-1.5605675233069167,41.32709960404992,-1.3391974499957018,1.0,29.61737
1226,41.394627544579414,-2.185803110502292,41.36086357431467,-1.6281876927375425,1.0,29.61737
1227,41.42839151484416,-2.4140108939820037,41.394627544579414,-1.8612841677324832,1.0,29.61737
1228,41.46215548510891,-2.1558622367182054,41.428391514844165,-1.8853313169301167,1.0,29.61737
1229,41.49591945537365,-1.4893153094313634,41.46215548510891,-1.5448034090881029,1.0,29.61737
1230,41.529683425638396,-0.6205260418734159,41.49591945537365,-0.7887885259381584,1.0,29.61737
1231,41.56344739590315,0.2125381357736766,41.5296834256384,0.25810368842396747,1.0,29.61737
1232,41.59721136616789,0.832157057391932,41.56344739590315,1.3172025208981237,1.0,29.61737
1233,41.63097533643264,1.1617267020776445,41.5972113661679,2.0711569629728492,1.0,29.61737
1234,41.664739306697385,1.2151250782026275,41.63097533643264,2.312513421805145,1.0,29.61737
1235,41.698503276962136,1.0643596798732187,41.66473930669739,2.0399647399059533,1.0,29.61737
