frame_idx,t_rppg,rppg_n,t_gt_pair,ppg_n_pair,lag_samples,lag_frames
0,0.0,0.07352198594146674,1.3517835110596335,-0.01402379117779426,-40.0,-1183.6214800000002
1,0.03379458777649084,1.0905213296259537,1.3855780988361244,-0.08929949347407816,-40.0,-1183.6214800000002
2,0.06758917555298168,1.7965259234317899,1.419372686612615,-0.1633432107592223,-40.0,-1183.6214800000002
3,0.10138376332947252,2.0188918444359625,1.453167274389106,-0.2895620082246224,-40.0,-1183.6214800000002
4,0.13517835110596335,1.7763072852519266,1.486961862165597,-0.44425201024465133,-40.0,-1183.6214800000002
5,0.1689729388824542,1.233360830545374,1.5207564499420876,-0.5290568988559483,-40.0,-1183.6214800000002
6,0.20276752665894504,0.6049628971849674,1.5545510377185785,-0.42896659308403234,-40.0,-1183.6214800000002
7,0.2365621144354359,0.07068177360891344,1.5883456254950694,-0.09333565871525934,-40.0,-1183.6214800000002
8,0.2703567022119267,-0.2756883527922883,1.62214021327156,0.41042670739364534,-40.0,-1183.6214800000002
9,0.30415128998841756,-0.4429983657101439,1.655934801048051,0.9086323718993896,-40.0,-1183.6214800000002
10,0.3379458777649084,-0.5253912433139645,1.689729388824542,1.1987794757699373,-40.0,-1183.6214800000002
11,0.3717404655413992,-0.6466129213294882,1.7235239766010326,1.1514392743178947,-40.0,-1183.6214800000002
12,0.4055350533178901,-0.88203186734479,1.7573185643775235,0.7772977314533147,-40.0,-1183.6214800000002
13,0.43932964109438094,-1.2010637465298628,1.7911131521540145,0.21902207623951264,-40.0,-1183.6214800000002
14,0.4731242288708718,-1.4722624990833826,1.8249077399305054,-0.3272274951155947,-40.0,-1183.6214800000002
15,0.5069188166473626,-1.5364263735993475,1.858702327706996,-0.7130795318404779,-40.0,-1183.6214800000002
16,0.5407134044238534,-1.3039266687184519,1.8924969154834868,-0.901561598365819,-40.0,-1183.6214800000002
17,0.5745079922003443,-0.8110002021330871,1.9262915032599777,-0.9574641252977336,-40.0,-1183.6214800000002
18,0.6083025799768351,-0.19821120769930783,1.9600860910364686,-0.9754588591038261,-40.0,-1183.6214800000002
19,0.6420971677533259,0.3683672396095375,1.9938806788129595,-0.9960624357028952,-40.0,-1183.6214800000002
20,0.6758917555298168,0.7748463766650087,2.0276752665894504,-0.9671255962508569,-40.0,-1183.6214800000002
21,0.7096863433063076,0.9880614620069704,2.0614698543659413,-0.7795070277612164,-40.0,-1183.6214800000002
22,0.7434809310827984,1.0306431495413513,2.095264442142432,-0.35646183483338717,-40.0,-1183.6214800000002
23,0.7772755188592894,0.9370174158925519,2.1290590299189227,0.2630656551247819,-40.0,-1183.6214800000002
24,0.8110701066357802,0.7294881592525052,2.1628536176954136,0.9090879076209085,-40.0,-1183.6214800000002
25,0.8448646944122711,0.42471215709580956,2.1966482054719045,1.3532423388156207,-40.0,-1183.6214800000002
26,0.8786592821887619,0.049255546152145335,2.2304427932483954,1.42893865860907,-40.0,-1183.6214800000002
27,0.9124538699652527,-0.35826387846188085,2.264237381024886,1.1225151605673545,-40.0,-1183.6214800000002
28,0.9462484577417436,-0.754723931274593,2.298031968801377,0.5763877596459315,-40.0,-1183.6214800000002
29,0.9800430455182344,-1.0887494851335422,2.3318265565778677,0.0041311306327800335,-40.0,-1183.6214800000002
30,1.0138376332947252,-1.280010161258353,2.3656211443543587,-0.42541652929361157,-40.0,-1183.6214800000002
31,1.0476322210712161,-1.2082443290201952,2.3994157321308496,-0.6618957246173247,-40.0,-1183.6214800000002
32,1.0814268088477068,-0.7528024401092649,2.4332103199073405,-0.7640895444542747,-40.0,-1183.6214800000002
33,1.1152213966241977,0.10605933548485093,2.4670049076838314,-0.822187994760327,-40.0,-1183.6214800000002
34,1.1490159844006886,1.1805796728574052,2.5007994954603223,-0.8692547416035169,-40.0,-1183.6214800000002
35,1.1828105721771793,2.0720302550379,2.534594083236813,-0.8446530011494903,-40.0,-1183.6214800000002
36,1.2166051599536702,2.33849736143005,2.5683886710133037,-0.6373007909338645,-40.0,-1183.6214800000002
37,1.2503997477301612,1.7639680958006034,2.6021832587897946,-0.18214328910465183,-40.0,-1183.6214800000002
38,1.2841943355066519,0.5426184655113444,2.635977846566285,0.45742301895879156,-40.0,-1183.6214800000002
39,1.3179889232831428,-0.772167715246662,2.669772434342776,1.0858838588826958,-40.0,-1183.6214800000002
40,1.3517835110596337,-1.539471513431078,2.703567022119267,1.465021793303179,-40.0,-1183.6214800000002
41,1.3855780988361244,-1.3589569111209088,2.737361609895758,1.4438491854820628,-40.0,-1183.6214800000002
42,1.4193726866126153,-0.2607762832633944,2.7711561976722487,1.0435357577616342,-40.0,-1183.6214800000002
43,1.4531672743891062,1.3432102926002918,2.8049507854487397,0.4409237400448843,-40.0,-1183.6214800000002
44,1.486961862165597,2.8883614300967655,2.8387453732252306,-0.1360256983256803,-40.0,-1183.6214800000002
45,1.5207564499420878,3.8982023659949294,2.8725399610017215,-0.5300222764902406,-40.0,-1183.6214800000002
46,1.5545510377185787,4.1049143982159215,2.9063345487782124,-0.7168582513312975,-40.0,-1183.6214800000002
47,1.5883456254950696,3.4477118036253938,2.9401291365547033,-0.7765830758829815,-40.0,-1183.6214800000002
48,1.6221402132715603,2.026888813510186,2.973923724331194,-0.8028336085335281,-40.0,-1183.6214800000002
49,1.6559348010480512,0.06813715650421143,3.0077183121076847,-0.8175493285923662,-40.0,-1183.6214800000002
50,1.6897293888245422,-2.104323112647133,3.0415128998841756,-0.7510789944090418,-40.0,-1183.6214800000002
51,1.7235239766010328,-4.113080060749125,3.075307487660666,-0.5017964856092019,-40.0,-1183.6214800000002
52,1.7573185643775238,-5.600513180636735,3.109102075437157,-0.033690446096637905,-40.0,-1183.6214800000002
53,1.7911131521540147,-6.298277498036696,3.142896663213648,0.5594020185963885,-40.0,-1183.6214800000002
54,1.8249077399305054,-6.058023907990519,3.176691250990139,1.0758253756376055,-40.0,-1183.6214800000002
55,1.8587023277069963,-4.863551136074483,3.2104858387666297,1.3086418625166891,-40.0,-1183.6214800000002
56,1.8924969154834872,-2.8776968031726837,3.2442804265431207,1.1634902916731265,-40.0,-1183.6214800000002
57,1.9262915032599779,-0.506867657382414,3.2780750143196116,0.7119750039902131,-40.0,-1183.6214800000002
58,1.9600860910364688,1.6333336189948964,3.3118696020961025,0.14460231262554063,-40.0,-1183.6214800000002
59,1.9938806788129597,2.935900644152755,3.3456641898725934,-0.3430872705361014,-40.0,-1183.6214800000002
60,2.0276752665894504,3.1115575898928753,3.379458777649084,-0.6539292875085893,-40.0,-1183.6214800000002
61,2.0614698543659413,2.363805122107962,3.413253365425575,-0.8164288749677714,-40.0,-1183.6214800000002
62,2.0952644421424322,1.2779633764955443,3.4470479532020657,-0.9250410355293386,-40.0,-1183.6214800000002
63,2.129059029918923,0.48983378891568646,3.4808425409785566,-1.041146488658612,-40.0,-1183.6214800000002
64,2.1628536176954136,0.354497548736129,3.514637128755047,-1.126992961139893,-40.0,-1183.6214800000002
65,2.1966482054719045,0.8094897435866525,3.784993830966974,0.8715099469210347,-47.0,-1390.7552390000003
66,2.2304427932483954,1.4745282194771874,3.818788418743465,0.3472328344186161,-47.0,-1390.7552390000003
67,2.2642373810248864,1.884564972206425,3.8525830065199558,-0.07856677463386079,-47.0,-1390.7552390000003
68,2.2980319688013773,1.7069960866218474,3.8863775942964467,-0.34118692377515847,-47.0,-1390.7552390000003
69,2.331826556577868,0.8509315843081252,3.9201721820729376,-0.496039992342242,-47.0,-1390.7552390000003
70,2.3656211443543587,-0.5316548990007147,3.953966769849428,-0.6363695211390412,-47.0,-1390.7552390000003
71,2.3994157321308496,-2.101560937678155,3.987761357625919,-0.7915121734017575,-47.0,-1390.7552390000003
72,2.4332103199073405,-3.4071047353183546,0.5745079922003444,-0.2976574780275744,55.0,1627.4795350000002
73,2.4670049076838314,-3.9855897000358667,0.6083025799768353,0.24419495653473378,55.0,1627.4795350000002
74,2.5007994954603223,-3.516910518233384,0.6420971677533263,0.6637686409835519,55.0,1627.4795350000002
75,2.5345940832368132,-2.007919341016916,0.6758917555298172,0.8291568147086695,55.0,1627.4795350000002
76,2.5683886710133037,0.10015296063990817,0.7096863433063076,0.719305377984137,55.0,1627.4795350000002
77,2.6021832587897946,2.044279813866917,0.7434809310827986,0.4210712757805267,55.0,1627.4795350000002
78,2.6359778465662855,3.1107286916372003,0.7772755188592895,0.06956187511717572,55.0,1627.4795350000002
79,2.6697724343427764,3.084049115517282,0.8110701066357804,-0.22854130773297907,55.0,1627.4795350000002
80,2.7035670221192674,2.4420003896840052,0.8110701066357804,-0.22854130773297907,56.0,1657.0700720000002
81,2.7373616098957583,2.0771124514319257,0.8448646944122713,-0.4418726739983934,56.0,1657.0700720000002
82,2.7711561976722487,2.675022456861873,0.8786592821887618,-0.6063271363696832,56.0,1657.0700720000002
83,2.8049507854487397,4.1779660281525715,0.9124538699652527,-0.7722370268627539,56.0,1657.0700720000002
84,2.8387453732252306,5.733641827557657,0.9462484577417436,-0.9447087551621173,56.0,1657.0700720000002
85,2.8725399610017215,6.190759777786513,0.9800430455182345,-1.059191311417679,56.0,1657.0700720000002
86,2.9063345487782124,4.822223734323815,1.0138376332947254,-1.0121070297416146,56.0,1657.0700720000002
87,2.9401291365547033,1.8040388472038786,1.0476322210712163,-0.7301790273437699,56.0,1657.0700720000002
88,2.973923724331194,-1.857187656274461,1.1152213966241977,0.34825077955820855,55.0,1627.4795350000002
89,3.0077183121076847,-4.885818337086229,1.8587023277069963,-0.7130795318404805,34.0,1006.0782580000001
90,3.0415128998841756,-6.404514996843536,1.8924969154834872,-0.9015615983658214,34.0,1006.0782580000001
91,3.0753074876606665,-6.288467900512798,1.926291503259978,-0.9574641252977341,34.0,1006.0782580000001
92,3.1091020754371574,-5.053869750340789,2.2980319688013773,0.5763877596459243,24.0,710.1728880000001
93,3.1428966632136484,-3.45687862332401,2.331826556577868,0.004131130632772443,24.0,710.1728880000001
94,3.1766912509901393,-2.1068276812309916,3.2780750143196116,0.7119750039902131,-3.0,-88.77161100000001
95,3.2104858387666297,-1.2823302943947559,3.345664189872593,-0.343087270536095,-4.0,-118.36214800000002
96,3.2442804265431207,-0.9508218207914488,3.379458777649084,-0.6539292875085893,-4.0,-118.36214800000002
97,3.2780750143196116,-0.8962946146215128,3.413253365425575,-0.8164288749677714,-4.0,-118.36214800000002
98,3.3118696020961025,-0.8709471964125003,3.4470479532020657,-0.9250410355293386,-4.0,-118.36214800000002
99,3.3456641898725934,-0.7208927059053422,3.4808425409785566,-1.041146488658612,-4.0,-118.36214800000002
100,3.3794587776490843,-0.4460461866143995,3.5146371287550475,-1.1269929611398941,-4.0,-118.36214800000002
101,3.413253365425575,-0.16652830340214356,3.548431716531538,-1.0613282674424538,-4.0,-118.36214800000002
102,3.4470479532020657,-0.013462232725301657,3.582226304308029,-0.729467941779463,-4.0,-118.36214800000002
103,3.4808425409785566,-0.016260202456175404,3.61602089208452,-0.12736965027390607,-4.0,-118.36214800000002
104,3.5146371287550475,-0.06733953975864633,3.61602089208452,-0.12736965027390607,-3.0,-88.77161100000001
105,3.5484317165315384,0.008954392696979662,3.6498154798610107,0.5957276814852688,-3.0,-88.77161100000001
106,3.5822263043080294,0.3321729839434821,3.6836100676375017,1.194509558998768,-3.0,-88.77161100000001
107,3.61602089208452,0.8718510995305901,3.7174046554139926,1.454984322262885,-3.0,-88.77161100000001
108,3.6498154798610107,1.4432359697892003,2.0614698543659413,-0.7795070277612164,47.0,1390.7552390000003
109,3.6836100676375017,1.7930754948033496,3.7849938309669744,0.8715099469210289,-3.0,-88.77161100000001
110,3.7174046554139926,1.7292592660248052,3.8187884187434653,0.34723283441861047,-3.0,-88.77161100000001
111,3.7511992431904835,1.2318062553262406,3.852583006519956,-0.07856677463386424,-3.0,-88.77161100000001
112,3.7849938309669744,0.4905187470901703,2.4670049076838314,-0.822187994760327,39.0,1154.0309430000002
113,3.818788418743465,-0.15831754672188272,2.5007994954603223,-0.8692547416035169,39.0,1154.0309430000002
114,3.8525830065199558,-0.3800020703510187,5.812669097556425,0.08001208985805039,-58.0,-1716.2511460000003
115,3.8863775942964467,-0.01150137465294572,5.846463685332916,-0.3034258831430246,-58.0,-1716.2511460000003
116,3.9201721820729376,0.8343636732165979,5.880258273109407,-0.5518419344417036,-58.0,-1716.2511460000003
117,3.9539667698494285,1.7995552002510802,5.9140528608858975,-0.747845186496747,-58.0,-1716.2511460000003
118,3.9877613576259194,2.446172138533051,5.9140528608858975,-0.747845186496747,-57.0,-1686.6606090000002
119,4.02155594540241,2.470602294804416,5.947847448662388,-0.9504132728168659,-57.0,-1686.6606090000002
120,4.055350533178901,1.843833224714359,5.9816420364388785,-1.1199726651399398,-57.0,-1686.6606090000002
121,4.089145120955392,0.803686562106087,5.778874509779934,0.6019963842373727,-50.0,-1479.5268500000002
122,4.122939708731883,-0.280433180893573,5.812669097556425,0.08001208985805039,-50.0,-1479.5268500000002
123,4.156734296508374,-1.0808205482746431,5.846463685332916,-0.3034258831430246,-50.0,-1479.5268500000002
124,4.1905288842848645,-1.4297873841818742,5.880258273109407,-0.5518419344417036,-50.0,-1479.5268500000002
125,4.224323472061355,-1.341029807970514,5.9140528608858975,-0.747845186496747,-50.0,-1479.5268500000002
126,4.258118059837846,-0.9550576919583866,5.9478474486623885,-0.9504132728168704,-50.0,-1479.5268500000002
127,4.291912647614337,-0.4604411163521771,5.981642036438879,-1.11997266513994,-50.0,-1479.5268500000002
128,4.325707235390827,-0.029977940576891335,6.015436624215369,-1.1284371062995922,-50.0,-1479.5268500000002
129,4.359501823167318,0.21825239704272592,6.04923121199186,-0.8507293016531285,-50.0,-1479.5268500000002
130,4.393296410943809,0.24050038370137483,6.083025799768351,-0.2747701004267515,-50.0,-1479.5268500000002
131,4.4270909987203,0.06955594657108449,6.083025799768351,-0.2747701004267515,-49.0,-1449.9363130000002
132,4.460885586496791,-0.20590314891812422,6.116820387544842,0.4505664183923122,-49.0,-1449.9363130000002
133,4.494680174273282,-0.48373056004763093,6.150614975321333,1.0709589786022118,-49.0,-1449.9363130000002
134,4.528474762049773,-0.6916210912104341,6.184409563097824,1.3562564064172284,-49.0,-1449.9363130000002
135,4.562269349826264,-0.8024227808571809,6.218204150874315,1.2221760479004702,-49.0,-1449.9363130000002
136,4.596063937602755,-0.8158479722481999,6.251998738650806,0.7661590433139331,-49.0,-1449.9363130000002
137,4.6298585253792455,-0.735587664415381,6.285793326427297,0.1976211456578555,-49.0,-1449.9363130000002
138,4.663653113155736,-0.5751909924983514,6.319587914203788,-0.2870646078030178,-49.0,-1449.9363130000002
139,4.697447700932227,-0.3900718994768828,6.589944616415714,0.4494241017166035,-56.0,-1657.0700720000002
140,4.731242288708717,-0.2933730423018724,6.589944616415713,0.44942410171658526,-55.0,-1627.4795350000002
141,4.765036876485208,-0.41350869044986155,6.623739204192204,1.133186401136704,-55.0,-1627.4795350000002
142,4.798831464261699,-0.7980888271203669,6.657533791968695,1.5503303089497729,-55.0,-1627.4795350000002
143,4.83262605203819,-1.3279848261769598,6.691328379745186,1.5509372953164091,-55.0,-1627.4795350000002
144,4.866420639814681,-1.724097317035768,6.691328379745186,1.5509372953164091,-54.0,-1597.8889980000004
145,4.900215227591172,-1.6766128415438324,4.562269349826264,-0.9075941727672323,10.0,295.90537000000006
146,4.934009815367663,-1.0307876016362507,4.596063937602755,-0.3386565438102908,10.0,295.90537000000006
147,4.967804403144154,0.09538535738607959,4.6298585253792455,0.4145699960362876,10.0,295.90537000000006
148,5.001598990920645,1.3494616600379687,4.663653113155736,1.1013014161762822,10.0,295.90537000000006
149,5.0353935786971356,2.3191958734764793,4.697447700932227,1.471465733404063,10.0,295.90537000000006
150,5.0691881664736265,2.7313667599356917,5.271955693132572,0.949924461756327,-6.0,-177.54322200000001
151,5.102982754250117,2.554433176828206,6.285793326427297,0.1976211456578555,-35.0,-1035.6687950000003
152,5.136777342026607,1.960198474984741,6.285793326427296,0.19762114565787048,-34.0,-1006.0782580000001
153,5.170571929803098,1.1941042314988854,6.792712143074659,-0.010300056474421507,-48.0,-1420.3457760000001
154,5.204366517579589,0.4477630411922076,6.82650673085115,-0.4504155409928354,-48.0,-1420.3457760000001
155,5.23816110535608,-0.19556991838058904,6.8603013186276405,-0.7398286604350409,-48.0,-1420.3457760000001
156,5.271955693132571,-0.7291204706394341,6.894095906404131,-0.9464025312336869,-48.0,-1420.3457760000001
157,5.305750280909062,-1.1452673876533606,6.927890494180622,-1.1163052955371984,-48.0,-1420.3457760000001
158,5.339544868685553,-1.380811897231921,6.961685081957113,-1.2073001281259443,-48.0,-1420.3457760000001
159,5.373339456462044,-1.3350777152534508,6.995479669733604,-1.1056749695778636,-48.0,-1420.3457760000001
160,5.407134044238535,-0.9530087939924389,7.029274257510095,-0.7172278885677262,-48.0,-1420.3457760000001
161,5.440928632015026,-0.30734520041584934,7.063068845286586,-0.06576821479913185,-48.0,-1420.3457760000001
162,5.4747232197915165,0.39531274461053867,7.096863433063077,0.6774784387312425,-48.0,-1420.3457760000001
163,5.5085178075680075,0.9058287784865242,7.130658020839568,1.2637072625668944,-48.0,-1420.3457760000001
164,5.5423123953444975,1.0647797937557524,7.164452608616058,1.4947925361362786,-48.0,-1420.3457760000001
165,5.576106983120988,0.8840003238223749,7.198247196392549,1.32603582483363,-48.0,-1420.3457760000001
166,5.609901570897479,0.5242005026661472,7.23204178416904,0.8766931547343291,-48.0,-1420.3457760000001
167,5.64369615867397,0.19128912993624597,7.502398486380966,-0.9456524547118922,-55.0,-1627.4795350000002
168,5.677490746450461,0.024649859922923463,7.536193074157457,-0.4181896256109796,-55.0,-1627.4795350000002
169,5.711285334226952,0.04395099877850927,7.569987661933948,0.3135375814272686,-55.0,-1627.4795350000002
170,5.745079922003443,0.1712446357952391,7.603782249710439,1.0096738498713758,-55.0,-1627.4795350000002
171,5.778874509779934,0.2944239575634216,7.671371425263421,1.4090523824517895,-56.0,-1657.0700720000002
172,5.812669097556425,0.3241960949853581,7.7051660130399116,1.0345852243995526,-56.0,-1657.0700720000002
173,5.846463685332916,0.22054021766963378,7.7389606008164025,0.4836161749726673,-56.0,-1657.0700720000002
174,5.880258273109407,-0.006375801525161622,7.536193074157458,-0.41818962561096573,-49.0,-1449.9363130000002
175,5.9140528608858975,-0.3073606165828686,7.569987661933949,0.3135375814272878,-49.0,-1449.9363130000002
176,5.947847448662388,-0.6107449745320077,7.569987661933948,0.3135375814272686,-48.0,-1420.3457760000001
177,5.9816420364388785,-0.8428947994483786,7.603782249710439,1.0096738498713758,-48.0,-1420.3457760000001
178,6.015436624215369,-0.9502926441018085,7.63757683748693,1.418352206725236,-48.0,-1420.3457760000001
179,6.04923121199186,-0.9167819744663391,7.671371425263421,1.4090523824517895,-48.0,-1420.3457760000001
180,6.083025799768351,-0.7665584088230672,4.258118059837846,1.1232641272896016,54.0,1597.8889980000004
181,6.116820387544842,-0.5485787224699482,4.291912647614337,0.5367442770189035,54.0,1597.8889980000004
182,6.150614975321333,-0.3123665420491231,4.325707235390828,-0.04739505784352633,54.0,1597.8889980000004
183,6.184409563097824,-0.09356970109654594,4.359501823167319,-0.4715825998162185,54.0,1597.8889980000004
184,6.218204150874315,0.08318169475450794,7.806549776369384,-0.42330920491679414,-47.0,-1390.7552390000003
185,6.251998738650806,0.1953471845535246,7.840344364145875,-0.6809857565915696,-47.0,-1390.7552390000003
186,6.285793326427297,0.2233302506578177,4.967804403144154,-1.0865963315456544,39.0,1154.0309430000002
187,6.319587914203788,0.16354832386965004,5.001598990920645,-1.2102068411178526,39.0,1154.0309430000002
188,6.3533825019802785,0.04091088246678352,5.0353935786971356,-1.1311304418315604,39.0,1154.0309430000002
189,6.387177089756769,-0.09422493008662394,5.069188166473626,-0.7392521565627028,39.0,1154.0309430000002
190,6.4209716775332595,-0.18784789887938175,5.1029827542501165,-0.05627079534018198,39.0,1154.0309430000002
191,6.45476626530975,-0.21032901317243918,5.136777342026607,0.7347073980840304,39.0,1154.0309430000002
192,6.488560853086241,-0.17073462691562766,5.170571929803098,1.3645134630345048,39.0,1154.0309430000002
193,6.522355440862732,-0.10551687445655028,5.440928632015026,-0.854963556865461,32.0,946.8971840000002
194,6.556150028639223,-0.04839125169143794,5.4747232197915165,-1.0442227790215959,32.0,946.8971840000002
195,6.589944616415714,-0.002527506905011151,5.5085178075680075,-1.1246549094368552,32.0,946.8971840000002
196,6.623739204192205,0.06514685996593049,5.542312395344498,-0.9585193966954759,32.0,946.8971840000002
197,6.657533791968696,0.20197348322713266,5.576106983120989,-0.4770986365142161,32.0,946.8971840000002
198,6.691328379745187,0.43149892913118,5.60990157089748,0.2354224535169751,32.0,946.8971840000002
199,6.725122967521678,0.7234550199472354,5.643696158673971,0.9527014021876749,32.0,946.8971840000002
200,6.758917555298169,0.9957978084894837,5.677490746450462,1.4145290212658268,32.0,946.8971840000002
201,6.792712143074659,1.1525712901672371,5.711285334226952,1.4658297273748013,32.0,946.8971840000002
202,6.82650673085115,1.132260601830679,5.745079922003443,1.1351129391670196,32.0,946.8971840000002
203,6.8603013186276405,0.9326593883586897,5.778874509779934,0.6019963842373727,32.0,946.8971840000002
204,6.894095906404131,0.6014280706276641,5.812669097556425,0.08001208985805039,32.0,946.8971840000002
205,6.927890494180622,0.21052515503566244,6.083025799768351,-0.2747701004267515,25.0,739.7634250000001
206,6.961685081957113,-0.16348421086436823,6.116820387544842,0.4505664183923122,25.0,739.7634250000001
207,6.995479669733604,-0.4504453239269799,6.150614975321333,1.0709589786022118,25.0,739.7634250000001
208,7.029274257510095,-0.6004141876803678,6.184409563097824,1.3562564064172284,25.0,739.7634250000001
209,7.063068845286586,-0.6041950584975261,6.218204150874315,1.2221760479004702,25.0,739.7634250000001
210,7.096863433063077,-0.5068853077765375,6.251998738650806,0.7661590433139331,25.0,739.7634250000001
211,7.130658020839568,-0.39527890538251936,6.285793326427297,0.1976211456578555,25.0,739.7634250000001
212,7.164452608616059,-0.35540923441862604,6.319587914203788,-0.2870646078030178,25.0,739.7634250000001
213,7.198247196392549,-0.42120429021556116,6.623739204192205,1.133186401136722,17.0,503.03912900000006
214,7.23204178416904,-0.5488353793085484,6.657533791968696,1.5503303089497837,17.0,503.03912900000006
215,7.265836371945531,-0.6404540508939269,6.691328379745187,1.5509372953164091,17.0,503.03912900000006
216,7.2996309597220215,-0.6094085715896037,6.961685081957113,-1.2073001281259443,10.0,295.90537000000006
217,7.333425547498512,-0.4466388991373168,6.995479669733604,-1.1056749695778636,10.0,295.90537000000006
218,7.367220135275003,-0.2389188674304063,7.029274257510095,-0.7172278885677262,10.0,295.90537000000006
219,7.401014723051494,-0.1168441684884416,7.063068845286586,-0.06576821479913185,10.0,295.90537000000006
220,7.434809310827985,-0.16182158283690565,7.096863433063077,0.6774784387312425,10.0,295.90537000000006
221,7.468603898604476,-0.3387878415157909,7.367220135275003,-0.6787706706785515,3.0,88.77161100000001
222,7.502398486380967,-0.5088838239212845,7.401014723051494,-0.9063378056912124,3.0,88.77161100000001
223,7.536193074157458,-0.5176783562160457,7.434809310827985,-1.1014885837194082,3.0,88.77161100000001
224,7.569987661933949,-0.2964696810683557,7.468603898604476,-1.1581973430302965,3.0,88.77161100000001
225,7.603782249710439,0.09510405422973577,7.502398486380966,-0.9456524547118922,3.0,88.77161100000001
226,7.63757683748693,0.5115447790898301,7.536193074157457,-0.4181896256109796,3.0,88.77161100000001
227,7.671371425263421,0.8139976877592097,7.569987661933948,0.3135375814272686,3.0,88.77161100000001
228,7.7051660130399116,0.9463630761582528,7.603782249710439,1.0096738498713758,3.0,88.77161100000001
229,7.7389606008164025,0.9466140915734147,7.63757683748693,1.418352206725236,3.0,88.77161100000001
230,7.772755188592893,0.8955527301989383,7.671371425263421,1.4090523824517895,3.0,88.77161100000001
231,7.806549776369384,0.8485646441138883,7.7051660130399116,1.0345852243995526,3.0,88.77161100000001
232,7.840344364145875,0.7994344369369659,7.7389606008164025,0.4836161749726673,3.0,88.77161100000001
233,7.874138951922366,0.6929559208812551,7.772755188592893,-0.03929384482789652,3.0,88.77161100000001
234,7.907933539698857,0.46886160178923897,7.806549776369384,-0.42330920491679414,3.0,88.77161100000001
235,7.941728127475348,0.10906056577202328,7.840344364145875,-0.6809857565915696,3.0,88.77161100000001
236,7.975522715251839,-0.3325060606616574,8.110701066357802,1.293446931012625,-4.0,-118.36214800000002
237,8.009317303028329,-0.731524554859279,7.907933539698856,-1.0806653407962834,3.0,88.77161100000001
238,8.04311189080482,-0.9360743579444603,7.941728127475347,-1.2015691232552916,3.0,88.77161100000001
239,8.07690647858131,-0.8427495746866027,7.975522715251838,-1.1197268815331736,3.0,88.77161100000001
240,8.110701066357802,-0.468137526025202,8.009317303028329,-0.7325133057283458,3.0,88.77161100000001
241,8.144495654134293,0.036807748826696886,8.04311189080482,-0.06635511379392178,3.0,88.77161100000001
242,8.178290241910783,0.4537872435890605,8.07690647858131,0.696407771730803,3.0,88.77161100000001
243,8.212084829687274,0.6127521389941737,8.110701066357802,1.293446931012625,3.0,88.77161100000001
244,8.245879417463765,0.48371150394895723,8.381057768569729,-0.9079126112511372,-4.0,-118.36214800000002
245,8.279674005240256,0.18369395867888216,8.41485235634622,-1.0896146903721844,-4.0,-118.36214800000002
246,8.313468593016747,-0.10779907460589905,8.44864694412271,-1.153500671339245,-4.0,-118.36214800000002
247,8.347263180793238,-0.2704531118416219,8.482441531899202,-0.9587844908144085,-4.0,-118.36214800000002
248,8.381057768569729,-0.31950031748162155,8.516236119675693,-0.4395445365046571,-4.0,-118.36214800000002
249,8.41485235634622,-0.38194056957017786,8.550030707452184,0.31141094653831913,-4.0,-118.36214800000002
250,8.44864694412271,-0.5876997597868867,8.82038740966411,-0.5177428253945308,-11.0,-325.49590700000005
251,8.482441531899202,-0.9535015527802801,8.854181997440602,-0.694858250953144,-11.0,-325.49590700000005
252,8.516236119675693,-1.3436218465455037,8.887976585217093,-0.8812824531682303,-11.0,-325.49590700000005
253,8.550030707452184,-1.53660924508783,8.921771172993584,-1.0488351059469303,-11.0,-325.49590700000005
254,8.583825295228674,-1.3532533761691925,8.955565760770074,-1.073790132590684,-11.0,-325.49590700000005
255,8.617619883005164,-0.7632172339000244,8.989360348546564,-0.8264838068543066,-11.0,-325.49590700000005
256,8.651414470781654,0.09122979271962008,9.25971705075849,-0.2384413116024586,-18.0,-532.629666
257,8.685209058558145,0.9594626848045057,9.29351163853498,-0.5618289096025093,-18.0,-532.629666
258,8.719003646334636,1.5907997439205463,9.327306226311471,-0.7884027370255691,-18.0,-532.629666
259,8.752798234111127,1.8284786106517918,9.361100814087962,-0.9914231036551945,-18.0,-532.629666
260,8.786592821887618,1.651064333582828,9.394895401864453,-1.1782592634628437,-18.0,-532.629666
261,8.820387409664109,1.1573854910201087,9.428689989640944,-1.2521960330647959,-18.0,-532.629666
262,8.8541819974406,0.5154474152841697,8.752798234111127,0.11110582473342485,3.0,88.77161100000001
263,8.88797658521709,-0.09847456967809157,8.786592821887618,-0.2788338904283691,3.0,88.77161100000001
264,8.921771172993582,-0.5491871583661118,8.820387409664109,-0.5177428253945214,3.0,88.77161100000001
265,8.955565760770073,-0.7669911786131596,8.8541819974406,-0.6948582509531342,3.0,88.77161100000001
266,8.989360348546564,-0.7455600253838225,8.88797658521709,-0.8812824531682215,3.0,88.77161100000001
267,9.023154936323055,-0.5255384230244565,8.651414470781654,1.569855234373934,11.0,325.49590700000005
268,9.056949524099545,-0.18066899205937756,8.685209058558145,1.2152634024567617,11.0,325.49590700000005
269,9.090744111876036,0.18941630303003215,8.719003646334636,0.6542285821010797,11.0,325.49590700000005
270,9.124538699652527,0.4726495104217756,9.023154936323055,-0.28492578361567,3.0,88.77161100000001
271,9.158333287429018,0.5762389474089874,9.056949524099545,0.4116415679665387,3.0,88.77161100000001
272,9.19212787520551,0.4686161719418377,9.090744111876036,1.0153304981722473,3.0,88.77161100000001
273,9.225922462982,0.206439563569324,9.124538699652527,1.2997630222054681,3.0,88.77161100000001
274,9.259717050758491,-0.07694636720891394,9.158333287429018,1.1822678040943941,3.0,88.77161100000001
275,9.293511638534982,-0.22783798072027442,9.19212787520551,0.7574246989039823,3.0,88.77161100000001
276,9.327306226311473,-0.15394482914481,9.225922462982,0.22418577007740717,3.0,88.77161100000001
277,9.361100814087964,0.11225250828842201,9.259717050758491,-0.23844131160248294,3.0,88.77161100000001
278,9.394895401864455,0.4155536971336057,9.293511638534982,-0.5618289096025263,3.0,88.77161100000001
279,9.428689989640946,0.5580351910874096,9.327306226311473,-0.788402737025581,3.0,88.77161100000001
280,9.462484577417435,0.4147541789643517,9.361100814087962,-0.9914231036551945,3.0,88.77161100000001
281,9.496279165193926,0.012152669596316919,9.394895401864453,-1.1782592634628437,3.0,88.77161100000001
282,9.530073752970416,-0.48227440253243936,9.428689989640944,-1.2521960330647959,3.0,88.77161100000001
283,9.563868340746907,-0.8516423012625954,9.462484577417435,-1.0668273242073771,3.0,88.77161100000001
284,9.597662928523398,-0.9429385738768316,9.496279165193926,-0.540330760580387,3.0,88.77161100000001
285,9.63145751629989,-0.7333975074407675,9.530073752970416,0.25103054489642584,3.0,88.77161100000001
286,9.66525210407638,-0.319842014589377,9.563868340746907,1.0738981717275853,3.0,88.77161100000001
287,9.699046691852871,0.1458077786824598,9.597662928523398,1.6448181986254535,3.0,88.77161100000001
288,9.732841279629362,0.5250461576251039,9.63145751629989,1.7791064595910437,3.0,88.77161100000001
289,9.766635867405853,0.7303960932919926,9.66525210407638,1.484821357122375,3.0,88.77161100000001
290,9.800430455182344,0.7304766930347782,9.699046691852871,0.9415400741374856,3.0,88.77161100000001
291,9.834225042958835,0.5403307845236306,9.732841279629362,0.38197081807279615,3.0,88.77161100000001
292,9.868019630735326,0.2114638655535109,9.766635867405853,-0.042681924125821454,3.0,88.77161100000001
293,9.901814218511817,-0.1770424923712032,9.800430455182344,-0.3270036115532582,3.0,88.77161100000001
294,9.935608806288307,-0.5327612324070592,9.834225042958835,-0.569500953884246,3.0,88.77161100000001
295,9.969403394064798,-0.7725647932587638,9.868019630735326,-0.8599339051252773,3.0,88.77161100000001
296,10.00319798184129,-0.847289971007849,9.901814218511817,-1.1775274616402922,3.0,88.77161100000001
297,10.03699256961778,-0.7572257070745712,9.935608806288307,-1.3748140858937126,3.0,88.77161100000001
298,10.070787157394271,-0.5517607645674913,9.969403394064798,-1.2651746208830237,3.0,88.77161100000001
299,10.104581745170762,-0.3140445024600886,10.00319798184129,-0.7602077615786808,3.0,88.77161100000001
300,10.138376332947253,-0.1347951848508114,10.510116798488653,-0.3178869781919805,-11.0,-325.49590700000005
301,10.172170920723744,-0.08001842947725055,10.543911386265144,0.45022929828270675,-11.0,-325.49590700000005
302,10.205965508500235,-0.16100211022682687,10.577705974041635,1.2049014260283812,-11.0,-325.49590700000005
303,10.239760096276726,-0.32082183488594357,10.611500561818126,1.6633724193774775,-11.0,-325.49590700000005
304,10.273554684053215,-0.4513933344151497,10.645295149594615,1.6675146352138857,-11.0,-325.49590700000005
305,10.307349271829706,-0.4418473198338758,10.679089737371106,1.2632401109434335,-11.0,-325.49590700000005
306,10.341143859606197,-0.2375470799162388,10.712884325147597,0.6572669913061271,-11.0,-325.49590700000005
307,10.374938447382688,0.12356976226226361,10.746678912924088,0.0854099883940901,-11.0,-325.49590700000005
308,10.408733035159178,0.5210225380330694,10.780473500700579,-0.31770900333769153,-11.0,-325.49590700000005
309,10.44252762293567,0.8061652136555362,11.050830202912504,0.3837078393334146,-18.0,-532.629666
310,10.47632221071216,0.8757675320772985,11.084624790688995,1.0899570451871692,-18.0,-532.629666
311,10.510116798488651,0.729259318541353,11.118419378465486,1.4708726565251173,-18.0,-532.629666
312,10.543911386265142,0.4767885836994219,11.152213966241977,1.419018678347684,-18.0,-532.629666
313,10.577705974041633,0.28545582582266055,10.47632221071216,-0.8454368895642141,3.0,88.77161100000001
314,10.611500561818124,0.287967627716769,10.510116798488651,-0.31788697819202083,3.0,88.77161100000001
315,10.645295149594615,0.5070985554410278,11.523954431783377,-0.19024963494318428,-26.0,-769.3539620000001
316,10.679089737371106,0.8425669173082208,11.557749019559868,0.7227421312406119,-26.0,-769.3539620000001
317,10.712884325147597,1.1272520232197383,11.591543607336359,1.4658218847913222,-26.0,-769.3539620000001
318,10.746678912924088,1.2174167156613518,10.645295149594615,1.6675146352138857,3.0,88.77161100000001
319,10.780473500700579,1.0635486229099582,10.679089737371106,1.2632401109434335,3.0,88.77161100000001
320,10.81426808847707,0.7224202376639044,10.712884325147597,0.6572669913061271,3.0,88.77161100000001
321,10.84806267625356,0.3081440948600397,10.746678912924088,0.0854099883940901,3.0,88.77161100000001
322,10.881857264030051,-0.08107178377338556,10.780473500700579,-0.31770900333769153,3.0,88.77161100000001
323,10.915651851806542,-0.40952028786255773,10.81426808847707,-0.5651509835722789,3.0,88.77161100000001
324,10.949446439583033,-0.6955308769315073,10.84806267625356,-0.7588825869306275,3.0,88.77161100000001
325,10.983241027359524,-0.9615260028478857,10.881857264030051,-0.9751983521563752,3.0,88.77161100000001
326,11.017035615136015,-1.185414549623601,10.881857264030051,-0.9751983521563752,4.0,118.36214800000002
327,11.050830202912506,-1.2940836694993463,10.915651851806542,-1.1789815949959306,4.0,118.36214800000002
328,11.084624790688995,-1.2095018637458195,10.949446439583031,-1.2298766323764534,4.0,118.36214800000002
329,11.118419378465486,-0.9171136454799643,10.983241027359522,-0.9795885711986632,4.0,118.36214800000002
330,11.152213966241977,-0.5027986271244858,11.523954431783377,-0.19024963494318428,-11.0,-325.49590700000005
331,11.186008554018468,-0.12249668626062427,11.557749019559868,0.7227421312406119,-11.0,-325.49590700000005
332,11.219803141794959,0.08050030804122765,11.591543607336359,1.4658218847913222,-11.0,-325.49590700000005
333,11.25359772957145,0.05388369523389069,11.62533819511285,1.7886986790523138,-11.0,-325.49590700000005
334,11.28739231734794,-0.14272109153920043,11.65913278288934,1.6283526206245067,-11.0,-325.49590700000005
335,11.321186905124431,-0.38388929037833897,11.692927370665831,1.1224137248885786,-11.0,-325.49590700000005
336,11.354981492900922,-0.5554762283861728,11.219803141794959,0.4752553890908846,4.0,118.36214800000002
337,11.388776080677413,-0.610982752151577,11.25359772957145,-0.013437022815660584,4.0,118.36214800000002
338,11.422570668453904,-0.5768046630243922,11.28739231734794,-0.3663270649836873,4.0,118.36214800000002
339,11.456365256230395,-0.5132980981224962,11.321186905124431,-0.6293240696826465,4.0,118.36214800000002
340,11.490159844006886,-0.46300436132536077,11.354981492900922,-0.893804173505471,4.0,118.36214800000002
341,11.523954431783377,-0.4175986945147309,11.388776080677413,-1.1849253854334274,4.0,118.36214800000002
342,11.557749019559868,-0.3210911151076826,11.422570668453904,-1.4043529546077247,4.0,118.36214800000002
343,11.591543607336359,-0.10867582721336291,11.490159844006886,-0.9610620214487128,3.0,88.77161100000001
344,11.62533819511285,0.2396111333860466,11.490159844006886,-0.9610620214487128,4.0,118.36214800000002
345,11.65913278288934,0.6653736611555442,11.523954431783377,-0.19024963494318428,4.0,118.36214800000002
346,11.692927370665831,1.0456605070225327,11.557749019559868,0.7227421312406119,4.0,118.36214800000002
347,11.726721958442322,1.2511790151244369,11.591543607336359,1.4658218847913222,4.0,118.36214800000002
348,11.760516546218813,1.2162422941840056,11.62533819511285,1.7886986790523138,4.0,118.36214800000002
349,11.794311133995304,0.9802984165105615,11.65913278288934,1.6283526206245067,4.0,118.36214800000002
350,11.828105721771795,0.6767247636700151,11.692927370665831,1.1224137248885786,4.0,118.36214800000002
351,11.861900309548286,0.47068406083817144,11.726721958442322,0.507662941665595,4.0,118.36214800000002
352,11.895694897324775,0.47237632030260407,11.760516546218811,-0.023734064410013134,4.0,118.36214800000002
353,11.929489485101266,0.6684807449337399,11.794311133995302,-0.4146718199940805,4.0,118.36214800000002
354,11.963284072877757,0.9156048067481802,11.828105721771793,-0.72637248887758,4.0,118.36214800000002
355,11.997078660654248,1.0140916600190402,11.861900309548284,-1.0361554241405329,4.0,118.36214800000002
356,12.030873248430739,0.8297784806419115,11.895694897324775,-1.3300573498182924,4.0,118.36214800000002
357,12.06466783620723,0.3872412640623887,11.929489485101266,-1.473922588998014,4.0,118.36214800000002
358,12.09846242398372,-0.1353161088640855,11.963284072877757,-1.291459557319587,4.0,118.36214800000002
359,12.132257011760212,-0.5141720719099991,11.997078660654248,-0.6999252257603436,4.0,118.36214800000002
360,12.166051599536702,-0.6186524069550285,12.030873248430739,0.19288731417857433,4.0,118.36214800000002
361,12.199846187313193,-0.4831134106657609,12.06466783620723,1.1067606681307183,4.0,118.36214800000002
362,12.233640775089684,-0.26734047042350445,12.09846242398372,1.7217114742257367,4.0,118.36214800000002
363,12.267435362866175,-0.14475104046652026,12.132257011760212,1.8441426368106104,4.0,118.36214800000002
364,12.301229950642666,-0.20260150585090708,12.166051599536702,1.5004686429225806,4.0,118.36214800000002
365,12.335024538419157,-0.4146945344132783,12.199846187313193,0.9010158175951195,4.0,118.36214800000002
366,12.368819126195648,-0.6874142091401739,12.233640775089684,0.30307418781677065,4.0,118.36214800000002
367,12.402613713972139,-0.9335310813760207,12.267435362866175,-0.1354014268310803,4.0,118.36214800000002
368,12.43640830174863,-1.1195247346696071,12.301229950642666,-0.4199757000116876,4.0,118.36214800000002
369,12.47020288952512,-1.2579572226259046,12.335024538419157,-0.667959817325925,4.0,118.36214800000002
370,12.503997477301612,-1.3585974239798357,12.368819126195648,-0.9825115612506091,4.0,118.36214800000002
371,12.537792065078103,-1.3839632745624582,12.402613713972139,-1.341398317422122,4.0,118.36214800000002
372,12.571586652854593,-1.2520585279366327,12.43640830174863,-1.579584384452082,4.0,118.36214800000002
373,12.605381240631084,-0.890488361078679,12.47020288952512,-1.4839800364301936,4.0,118.36214800000002
374,12.639175828407575,-0.3030098502870951,12.503997477301612,-0.9430979920968073,4.0,118.36214800000002
375,12.672970416184066,0.4015428589628865,12.537792065078103,-0.05238771769842965,4.0,118.36214800000002
376,12.706765003960557,1.0401726866977314,13.078505469501957,1.1863506826482897,-11.0,-325.49590700000005
377,12.740559591737046,1.4281900142010846,13.112300057278446,1.8830122562121656,-11.0,-325.49590700000005
378,12.774354179513537,1.4536497023220853,12.639175828407573,1.749210531368815,4.0,118.36214800000002
379,12.808148767290028,1.1218397197710603,12.672970416184064,1.4258790152393366,4.0,118.36214800000002
380,12.841943355066519,0.5581639942799693,12.706765003960555,0.8108846310153793,4.0,118.36214800000002
381,12.87573794284301,-0.029975631293720308,12.740559591737046,0.17496329310040765,4.0,118.36214800000002
382,12.9095325306195,-0.4265447632628375,12.774354179513537,-0.29910526702912654,4.0,118.36214800000002
383,12.943327118395992,-0.4958946978053365,12.808148767290028,-0.5931401651894901,4.0,118.36214800000002
384,12.977121706172483,-0.24740912592140818,13.348862171713883,-0.5662399558830026,-11.0,-325.49590700000005
385,13.010916293948974,0.16569318188972504,13.382656759490374,-0.8891373184289675,-11.0,-325.49590700000005
386,13.044710881725464,0.5227008335781005,13.416451347266865,-1.2670006110741885,-11.0,-325.49590700000005
387,13.078505469501955,0.6501122143632241,12.943327118395992,-1.4934794766491735,4.0,118.36214800000002
388,13.112300057278446,0.5125520245241013,12.977121706172483,-1.3255216730484718,4.0,118.36214800000002
389,13.146094645054937,0.22933759860395292,13.010916293948974,-0.7290635308238302,4.0,118.36214800000002
390,13.179889232831428,0.0054059111719915835,13.044710881725464,0.2024561723593395,4.0,118.36214800000002
391,13.213683820607919,0.012396454319463719,13.078505469501955,1.186350682648253,4.0,118.36214800000002
392,13.24747840838441,0.28739988268174155,13.112300057278446,1.8830122562121656,4.0,118.36214800000002
393,13.2812729961609,0.7108135954243854,13.146094645054937,2.070936537484217,4.0,118.36214800000002
394,13.315067583937392,1.0770219060393962,13.179889232831428,1.7547722548149445,4.0,118.36214800000002
395,13.348862171713883,1.2103929759137375,13.213683820607919,1.1406065949074724,4.0,118.36214800000002
396,13.382656759490374,1.0494038428243397,13.24747840838441,0.50008748693795,4.0,118.36214800000002
397,13.416451347266865,0.6492014875398563,13.2812729961609,0.01453043678746278,4.0,118.36214800000002
398,13.450245935043355,0.11753070225516753,13.315067583937392,-0.3031123277771349,4.0,118.36214800000002
399,13.484040522819846,-0.4526614817195191,13.855780988361246,-0.7761161462194451,-11.0,-325.49590700000005
400,13.517835110596337,-0.9996833621590858,13.889575576137737,-1.0566814627444843,-11.0,-325.49590700000005
401,13.551629698372826,-1.4612869701451352,13.923370163914226,-1.395814600798114,-11.0,-325.49590700000005
402,13.585424286149317,-1.7470162420938216,13.957164751690717,-1.646934419744521,-11.0,-325.49590700000005
403,13.619218873925808,-1.760541359292078,13.990959339467208,-1.591757257797786,-11.0,-325.49590700000005
404,13.6530134617023,-1.462985876435203,14.0247539272437,-1.0872770086023285,-11.0,-325.49590700000005
405,13.68680804947879,-0.9221151304198492,14.05854851502019,-0.1847453991136984,-11.0,-325.49590700000005
406,13.720602637255281,-0.29887010674131753,14.092343102796681,0.8613865773956433,-11.0,-325.49590700000005
407,13.754397225031772,0.2274472609428096,14.126137690573172,1.7075600502442088,-11.0,-325.49590700000005
408,13.788191812808263,0.5454700654201697,14.159932278349663,2.091288633505499,-11.0,-325.49590700000005
409,13.821986400584754,0.6497707686060178,14.193726866126154,1.95396026164222,-11.0,-325.49590700000005
410,13.855780988361245,0.6064101736474197,14.227521453902645,1.444379077773356,-11.0,-325.49590700000005
411,13.889575576137736,0.47774829595205026,14.261316041679136,0.8084864281767563,-11.0,-325.49590700000005
412,13.923370163914226,0.2709411135842566,13.788191812808263,-0.25739176778679135,4.0,118.36214800000002
413,13.957164751690717,-0.04573351636664398,13.821986400584754,-0.5495707666581465,4.0,118.36214800000002
414,13.990959339467208,-0.4731928837661379,13.855780988361245,-0.7761161462194304,4.0,118.36214800000002
415,14.0247539272437,-0.9199702165440965,13.889575576137736,-1.0566814627444665,4.0,118.36214800000002
416,14.05854851502019,-1.2069955077802776,14.700645682773516,1.6742068744671776,-19.0,-562.2202030000001
417,14.092343102796681,-1.148379330875508,13.957164751690717,-1.646934419744521,4.0,118.36214800000002
418,14.126137690573172,-0.6613104492006969,13.990959339467208,-1.591757257797786,4.0,118.36214800000002
419,14.159932278349663,0.16593119689592412,14.0247539272437,-1.0872770086023285,4.0,118.36214800000002
420,14.193726866126154,1.0936382998590857,14.05854851502019,-0.1847453991136984,4.0,118.36214800000002
421,14.227521453902645,1.829022980085741,14.092343102796681,0.8613865773956433,4.0,118.36214800000002
422,14.261316041679136,2.150250992802931,14.126137690573172,1.7075600502442088,4.0,118.36214800000002
423,14.295110629455626,1.9949458451780875,14.159932278349663,2.091288633505499,4.0,118.36214800000002
424,14.328905217232117,1.4747262837099786,14.193726866126154,1.95396026164222,4.0,118.36214800000002
425,14.362699805008607,0.8131444364280985,14.227521453902643,1.444379077773383,4.0,118.36214800000002
426,14.396494392785097,0.23782634899165944,14.261316041679134,0.8084864281767897,4.0,118.36214800000002
427,14.430288980561588,-0.12189034495237103,14.295110629455625,0.24158533688209993,4.0,118.36214800000002
428,14.46408356833808,-0.28083414087526853,14.328905217232116,-0.2017763829914808,4.0,118.36214800000002
429,14.49787815611457,-0.3625249126115801,14.86961862165597,-0.7619477053114856,-11.0,-325.49590700000005
430,14.531672743891061,-0.5028657097932907,14.903413209432461,-1.1142943387545459,-11.0,-325.49590700000005
431,14.565467331667552,-0.751895567327652,14.937207797208952,-1.5094959557659884,-11.0,-325.49590700000005
432,14.599261919444043,-1.0342777995071466,14.937207797208952,-1.5094959557659884,-10.0,-295.90537000000006
433,14.633056507220534,-1.1915523066130271,14.971002384985443,-1.7929948424320168,-10.0,-295.90537000000006
434,14.666851094997025,-1.0795763072002893,15.004796972761934,-1.7438082304771068,-10.0,-295.90537000000006
435,14.700645682773516,-0.6642082976105801,15.038591560538425,-1.2241162548110782,-10.0,-295.90537000000006
436,14.734440270550007,-0.060880172759523885,15.072386148314916,-0.2986214869090909,-10.0,-295.90537000000006
437,14.768234858326498,0.5061179531649747,15.106180736091407,0.7605136409818241,-10.0,-295.90537000000006
438,14.802029446102988,0.8079214837265054,15.139975323867898,1.5958360857340919,-10.0,-295.90537000000006
439,14.83582403387948,0.7277528350606383,14.666851094997025,1.9356917772807263,5.0,147.95268500000003
440,14.86961862165597,0.3248586829609607,14.700645682773516,1.6742068744671776,5.0,147.95268500000003
441,14.903413209432461,-0.19765651892892086,14.734440270550007,1.0806561111141737,5.0,147.95268500000003
442,14.937207797208952,-0.6072229947805539,14.768234858326498,0.4263899901187518,5.0,147.95268500000003
443,14.971002384985443,-0.7677671815421413,14.802029446102988,-0.0961318634170811,5.0,147.95268500000003
444,15.004796972761934,-0.6976764610753912,14.83582403387948,-0.4585886227775765,5.0,147.95268500000003
445,15.038591560538425,-0.5289417094609975,14.86961862165597,-0.7619477053114856,5.0,147.95268500000003
446,15.072386148314916,-0.4047743147198821,14.903413209432461,-1.1142943387545459,5.0,147.95268500000003
447,15.106180736091407,-0.3887810189117278,14.937207797208952,-1.5094959557659884,5.0,147.95268500000003
448,15.139975323867898,-0.440178631465393,14.971002384985443,-1.7929948424320168,5.0,147.95268500000003
449,15.173769911644387,-0.45885651870633026,15.004796972761932,-1.7438082304771094,5.0,147.95268500000003
450,15.207564499420878,-0.36117351241973883,15.038591560538423,-1.2241162548111055,5.0,147.95268500000003
451,15.241359087197369,-0.13542835084823499,15.072386148314914,-0.2986214869091396,5.0,147.95268500000003
452,15.27515367497386,0.15483768680265322,15.106180736091405,0.7605136409817683,5.0,147.95268500000003
453,15.30894826275035,0.41571517589756496,15.139975323867896,1.5958360857340481,5.0,147.95268500000003
454,15.342742850526841,0.582040844208968,15.173769911644387,1.9429957380453857,5.0,147.95268500000003
455,15.376537438303332,0.651282558376105,15.207564499420878,1.7564434649623526,5.0,147.95268500000003
456,15.410332026079823,0.6736404131526051,15.241359087197369,1.208120362626696,5.0,147.95268500000003
457,15.444126613856314,0.7109900993656207,15.27515367497386,0.5674933821410183,5.0,147.95268500000003
458,15.477921201632805,0.7942767795224944,15.815867079397714,-0.07801334534380053,-10.0,-295.90537000000006
459,15.511715789409296,0.9012478867990136,15.849661667174205,-0.5788821634579471,-10.0,-295.90537000000006
460,15.545510377185787,0.9610397140060368,15.883456254950696,-1.0306571072419908,-10.0,-295.90537000000006
461,15.579304964962278,0.8869023614080785,15.917250842727187,-1.4546617958665078,-10.0,-295.90537000000006
462,15.613099552738769,0.6316294030763261,15.951045430503678,-1.7789292429489392,-10.0,-295.90537000000006
463,15.64689414051526,0.23790108388829642,15.477921201632805,-1.340136105401811,5.0,147.95268500000003
464,15.68068872829175,-0.16003098945204747,15.511715789409296,-1.2751070308993577,5.0,147.95268500000003
465,15.714483316068241,-0.4027596842121458,15.545510377185787,-0.8134313063861245,5.0,147.95268500000003
466,15.748277903844732,-0.40418933820831326,15.579304964962278,-0.009941589486056881,5.0,147.95268500000003
467,15.782072491621223,-0.20987334255452844,15.613099552738769,0.8977698018877865,5.0,147.95268500000003
468,15.815867079397714,0.033321705221822824,15.64689414051526,1.5989595055845869,5.0,147.95268500000003
469,15.849661667174205,0.1759337618220311,15.68068872829175,1.8678395206990803,5.0,147.95268500000003
470,15.883456254950696,0.15815150640758852,15.714483316068241,1.6686660152525772,5.0,147.95268500000003
471,15.917250842727187,0.02835781115296694,15.748277903844732,1.1449006313221737,5.0,147.95268500000003
472,15.951045430503678,-0.11816168522985508,15.782072491621223,0.5102186250601781,5.0,147.95268500000003
473,15.984840018280169,-0.2254145425081389,15.815867079397714,-0.07801334534380053,5.0,147.95268500000003
474,16.018634606056658,-0.3191803482324549,15.849661667174203,-0.5788821634579208,5.0,147.95268500000003
475,16.05242919383315,-0.4752684807459813,15.883456254950694,-1.030657107241967,5.0,147.95268500000003
476,16.08622378160964,-0.739988421542612,15.917250842727185,-1.4546617958664856,5.0,147.95268500000003
477,16.12001836938613,-1.065071257994111,15.951045430503676,-1.778929242948922,5.0,147.95268500000003
478,16.15381295716262,-1.3117185357445056,15.984840018280167,-1.8456250884006016,5.0,147.95268500000003
479,16.187607544939112,-1.331022369636536,16.018634606056658,-1.5064099731536105,5.0,147.95268500000003
480,16.221402132715603,-1.0689468600404894,16.018634606056658,-1.5064099731536105,6.0,177.54322200000001
481,16.255196720492094,-0.6171063217988911,16.559348010480512,-0.4256380822768953,-9.0,-266.314833
482,16.288991308268585,-0.1650637535713917,16.593142598257003,0.49974034163904624,-9.0,-266.314833
483,16.322785896045076,0.1155908485358264,16.12001836938613,1.2190079401214717,6.0,177.54322200000001
484,16.356580483821567,0.17323608619676892,16.15381295716262,1.8065668957098286,6.0,177.54322200000001
485,16.390375071598058,0.09522558920224698,16.187607544939112,1.882753302984083,6.0,177.54322200000001
486,16.42416965937455,0.03657392648729812,16.221402132715603,1.5131364868671053,6.0,177.54322200000001
487,16.45796424715104,0.11208667976356915,16.964883063798403,-1.3328408750602698,-15.0,-443.8580550000001
488,16.49175883492753,0.32583129787511605,16.998677651574894,-1.2385619236463443,-15.0,-443.8580550000001
489,16.52555342270402,0.5807343799097607,17.032472239351385,-0.7805625951055174,-15.0,-443.8580550000001
490,16.559348010480512,0.753030154394255,17.066266827127876,-0.0365263006994235,-15.0,-443.8580550000001
491,16.593142598257003,0.7745415163766345,17.100061414904367,0.7544875034177969,-15.0,-443.8580550000001
492,16.626937186033494,0.6691262131441562,17.133856002680858,1.3052056271666703,-15.0,-443.8580550000001
493,16.660731773809985,0.5287365981002178,17.16765059045735,1.4321117974793567,-15.0,-443.8580550000001
494,16.694526361586476,0.45359247484124793,17.471801880445767,-1.204522151881692,-23.0,-680.5823510000001
495,16.728320949362967,0.494599060194975,17.505596468222258,-1.0186569187060412,-23.0,-680.5823510000001
496,16.762115537139458,0.6275296521957144,17.57318564377524,0.34705182611227087,-24.0,-710.1728880000001
497,16.79591012491595,0.7705251580226887,17.57318564377524,0.34705182611227087,-23.0,-680.5823510000001
498,16.82970471269244,0.8346365840573814,16.626937186033494,1.30617322440006,6.0,177.54322200000001
499,16.86349930046893,0.7772538680811876,16.660731773809985,1.727470298071746,6.0,177.54322200000001
500,16.89729388824542,0.6232347974332247,16.694526361586476,1.6704498330608828,6.0,177.54322200000001
501,16.931088476021912,0.43758814753676634,16.728320949362967,1.2437364936706223,6.0,177.54322200000001
502,16.964883063798403,0.26835259391695615,16.762115537139458,0.6704329132882093,6.0,177.54322200000001
503,16.998677651574894,0.10360463903913507,16.79591012491595,0.14895876601653937,6.0,177.54322200000001
504,17.032472239351385,-0.12065921599833514,16.82970471269244,-0.24467120836369272,6.0,177.54322200000001
505,17.066266827127876,-0.4632337326654503,16.86349930046893,-0.5546952660753085,6.0,177.54322200000001
506,17.100061414904367,-0.9131659896094741,16.89729388824542,-0.8564470629158276,6.0,177.54322200000001
507,17.133856002680858,-1.369229217078095,16.931088476021912,-1.1522170031943217,6.0,177.54322200000001
508,17.16765059045735,-1.6825649342608957,16.964883063798403,-1.3328408750602698,6.0,177.54322200000001
509,17.20144517823384,-1.7348507637998534,16.998677651574894,-1.2385619236463443,6.0,177.54322200000001
510,17.235239766010327,-1.501473789646476,17.03247223935138,-0.7805625951055655,6.0,177.54322200000001
511,17.269034353786818,-1.0635124377434795,18.755996215952415,0.42281177441316764,-44.0,-1301.9836280000002
512,17.30282894156331,-0.5653352023290739,18.789790803728906,-0.04995111579539646,-44.0,-1301.9836280000002
513,17.3366235293398,-0.14301817392446797,18.823585391505397,-0.36681330515935634,-44.0,-1301.9836280000002
514,17.37041811711629,0.1371473977613891,18.857379979281887,-0.5961009994060434,-44.0,-1301.9836280000002
515,17.40421270489278,0.29489057589414314,18.89117456705838,-0.8334113236119708,-44.0,-1301.9836280000002
516,17.438007292669273,0.39769470998205164,18.92496915483487,-1.0921979337888994,-44.0,-1301.9836280000002
517,17.471801880445764,0.4965529476533147,17.269034353786818,0.12077356605399928,6.0,177.54322200000001
518,17.505596468222254,0.5849758925001367,17.30282894156331,-0.2465801005811623,6.0,177.54322200000001
519,17.539391055998745,0.6118918498476843,17.3366235293398,-0.4687027439733878,6.0,177.54322200000001
520,17.573185643775236,0.5347800707058448,17.37041811711629,-0.6447649327667523,6.0,177.54322200000001
521,17.606980231551727,0.3682668390290405,17.40421270489278,-0.8609380517571448,6.0,177.54322200000001
522,17.640774819328218,0.18959798758536547,17.438007292669273,-1.0946227718166643,6.0,177.54322200000001
523,17.67456940710471,0.0961182676597883,17.471801880445764,-1.2045221518817115,6.0,177.54322200000001
524,17.7083639948812,0.14424166926590062,17.505596468222254,-1.0186569187060994,6.0,177.54322200000001
525,17.74215858265769,0.31219930083776043,17.539391055998745,-0.46466873359299965,6.0,177.54322200000001
526,17.77595317043418,0.5117367550537624,17.573185643775236,0.3470518261121864,6.0,177.54322200000001
527,17.809747758210673,0.6382119946822074,17.606980231551727,1.1509175205566264,6.0,177.54322200000001
528,17.843542345987164,0.6232185434310413,17.640774819328218,1.655448154651605,6.0,177.54322200000001
529,17.877336933763655,0.4600904450955559,17.67456940710471,1.6953137821550024,6.0,177.54322200000001
530,17.911131521540145,0.1986546505751322,17.7083639948812,1.3101295858053417,6.0,177.54322200000001
531,17.944926109316636,-0.0773959774858044,17.74215858265769,0.7030429672872803,6.0,177.54322200000001
532,17.978720697093127,-0.27884006525689126,17.978720697093127,-1.317242716386763,0.0,0.0
533,18.012515284869618,-0.34030599883312523,18.012515284869618,-1.0685335300338947,0.0,0.0
534,18.04630987264611,-0.24545741683449512,18.04630987264611,-0.47756053508649743,0.0,0.0
535,18.0801044604226,-0.03704834948863556,18.0801044604226,0.3198633648695247,0.0,0.0
536,18.11389904819909,0.1975038560494133,18.11389904819909,1.0595662943394022,0.0,0.0
537,18.147693635975582,0.36082035558546416,18.620817864846455,1.3779981194470385,-14.0,-414.26751800000005
538,18.181488223752073,0.38374087253032957,18.654612452622946,1.6543248895348197,-14.0,-414.26751800000005
539,18.215282811528564,0.2511446326157403,18.688407040399436,1.4832676377538796,-14.0,-414.26751800000005
540,18.249077399305055,0.006988614088524611,18.722201628175927,0.9965011211187266,-14.0,-414.26751800000005
541,18.282871987081545,-0.2658805985057521,18.78979080372891,-0.04995111579544613,-15.0,-443.8580550000001
542,18.316666574858036,-0.48706196022709275,18.8235853915054,-0.36681330515938965,-15.0,-443.8580550000001
543,18.350461162634527,-0.618986591474146,18.85737997928189,-0.5961009994060675,-15.0,-443.8580550000001
544,18.38425575041102,-0.6769895847501557,18.891174567058382,-0.833411323611998,-15.0,-443.8580550000001
545,18.41805033818751,-0.7013598637351267,18.924969154834873,-1.0921979337889174,-15.0,-443.8580550000001
546,18.451844925964,-0.7166118709179315,18.958763742611364,-1.2624109240596442,-15.0,-443.8580550000001
547,18.48563951374049,-0.7129754428830627,18.992558330387855,-1.1719917814902052,-15.0,-443.8580550000001
548,18.519434101516982,-0.6628988171047823,19.026352918164346,-0.7138589070702922,-15.0,-443.8580550000001
549,18.553228689293473,-0.554262316944759,19.060147505940837,0.04905966021033015,-15.0,-443.8580550000001
550,18.587023277069964,-0.4088514440510633,19.36429879592925,-0.7401229792754159,-23.0,-680.5823510000001
551,18.620817864846455,-0.26798618998447,19.398093383705742,-1.0167177289609441,-23.0,-680.5823510000001
552,18.654612452622946,-0.15585928249475978,19.431887971482233,-1.3330616511838693,-23.0,-680.5823510000001
553,18.688407040399436,-0.05309240065283464,19.465682559258724,-1.5424658807654574,-23.0,-680.5823510000001
554,18.722201628175927,0.09154737413856907,19.499477147035215,-1.4433251194876007,-23.0,-680.5823510000001
555,18.75599621595242,0.3150129747414911,19.533271734811706,-0.9214547552803052,-23.0,-680.5823510000001
556,18.78979080372891,0.5961991413685672,19.567066322588197,-0.05701838406130866,-23.0,-680.5823510000001
557,18.8235853915054,0.8537788833297748,19.600860910364688,0.8822346798286588,-23.0,-680.5823510000001
558,18.85737997928189,0.9914790474969785,19.63465549814118,1.567268217638753,-23.0,-680.5823510000001
559,18.89117456705838,0.9567060954032884,19.66845008591767,1.7781953881480128,-23.0,-680.5823510000001
560,18.92496915483487,0.7683426532759072,19.70224467369416,1.5115900181889965,-23.0,-680.5823510000001
561,18.95876374261136,0.4974975788729894,19.73603926147065,0.959351025138276,-23.0,-680.5823510000001
562,18.99255833038785,0.2241352845752353,20.006395963682575,-1.2762677332542687,-30.0,-887.7161100000002
563,19.026352918164342,0.00626960140560028,20.276752665894502,0.2346062514387679,-37.0,-1094.8498690000001
564,19.060147505940833,-0.12379891949225275,19.533271734811706,-0.9214547552803052,-14.0,-414.26751800000005
565,19.093942093717324,-0.15263645178864485,19.567066322588197,-0.05701838406130866,-14.0,-414.26751800000005
566,19.127736681493815,-0.08953426104673809,19.600860910364688,0.8822346798286588,-14.0,-414.26751800000005
567,19.161531269270306,0.021075990246973476,19.63465549814118,1.567268217638753,-14.0,-414.26751800000005
568,19.195325857046797,0.1022422771705636,19.66845008591767,1.7781953881480128,-14.0,-414.26751800000005
569,19.229120444823288,0.07873347426523115,17.7083639948812,1.3101295858053417,45.0,1331.5741650000002
570,19.26291503259978,-0.07097964030431778,17.7083639948812,1.3101295858053417,46.0,1361.1647020000003
571,19.29670962037627,-0.2841168628316966,17.438007292669273,-1.0946227718166643,55.0,1627.4795350000002
572,19.33050420815276,-0.4372209895526325,17.471801880445764,-1.2045221518817115,55.0,1627.4795350000002
573,19.36429879592925,-0.41728914234943776,17.505596468222254,-1.0186569187060994,55.0,1627.4795350000002
574,19.398093383705742,-0.19217150535191926,17.539391055998745,-0.46466873359299965,55.0,1627.4795350000002
575,19.431887971482233,0.16856747316757778,18.41805033818751,-1.056975855571478,30.0,887.7161100000002
576,19.465682559258724,0.5280280688297841,18.451844925964,-1.2271828529246682,30.0,887.7161100000002
577,19.499477147035215,0.7395317362098944,18.48563951374049,-1.1842422668177457,30.0,887.7161100000002
578,19.533271734811706,0.6989890601865251,18.519434101516982,-0.8058106828168382,30.0,887.7161100000002
579,19.567066322588197,0.38510403034230695,18.553228689293473,-0.10989423791840368,30.0,887.7161100000002
580,19.600860910364688,-0.1186209306111326,18.587023277069964,0.7127796086631838,30.0,887.7161100000002
581,19.63465549814118,-0.6396768749957155,18.587023277069964,0.7127796086631838,31.0,917.3066470000001
582,19.66845008591767,-0.9834179654174732,18.620817864846455,1.3779981194470385,31.0,917.3066470000001
583,19.70224467369416,-1.0280290014306397,18.654612452622946,1.6543248895348197,31.0,917.3066470000001
584,19.73603926147065,-0.7895615083872733,18.688407040399436,1.4832676377538796,31.0,917.3066470000001
585,19.769833849247142,-0.406309843152952,18.722201628175927,0.9965011211187266,31.0,917.3066470000001
586,19.803628437023633,-0.048704280872662035,18.75599621595242,0.42281177441310724,31.0,917.3066470000001
587,19.837423024800124,0.17679377169013252,18.78979080372891,-0.04995111579544613,31.0,917.3066470000001
588,19.871217612576615,0.25685654591909735,18.8235853915054,-0.36681330515938965,31.0,917.3066470000001
589,19.905012200353106,0.22634031312401148,18.85737997928189,-0.5961009994060675,31.0,917.3066470000001
590,19.938806788129597,0.1111891278981567,18.891174567058382,-0.833411323611998,31.0,917.3066470000001
591,19.972601375906088,-0.07946110850805638,18.924969154834873,-1.0921979337889174,31.0,917.3066470000001
592,20.00639596368258,-0.31250467313984304,18.958763742611364,-1.2624109240596442,31.0,917.3066470000001
593,20.04019055145907,-0.494844108365243,19.1953258570468,1.3449938646481308,25.0,739.7634250000001
594,20.07398513923556,-0.4936565049479817,19.22912044482329,0.7878522211100759,25.0,739.7634250000001
595,20.10777972701205,-0.21746348680090768,19.262915032599782,0.20726202982929992,25.0,739.7634250000001
596,20.141574314788542,0.2923972063736447,19.600860910364688,0.8822346798286588,16.0,473.4485920000001
597,20.175368902565033,0.833968996998633,19.12773668149382,1.4769805493225985,31.0,917.3066470000001
598,20.209163490341524,1.1238231548828537,19.16153126927031,1.634319642865864,31.0,917.3066470000001
599,20.242958078118015,0.954279948190789,19.70224467369416,1.5115900181889965,16.0,473.4485920000001
600,20.276752665894506,0.3357117762538955,19.73603926147065,0.959351025138276,16.0,473.4485920000001
601,20.310547253670997,-0.4744010420727583,19.769833849247142,0.37922280641638423,16.0,473.4485920000001
602,20.344341841447488,-1.0901402915059346,19.803628437023633,-0.054919850221751686,16.0,473.4485920000001
603,20.37813642922398,-1.203529774696173,19.330504208152764,-0.5122097717701057,31.0,917.3066470000001
604,20.41193101700047,-0.755984761485196,19.364298795929255,-0.740122979275445,31.0,917.3066470000001
605,20.44572560477696,0.030584811928921447,19.398093383705746,-1.0167177289609775,31.0,917.3066470000001
606,20.47952019255345,0.7783613186010842,20.44572560477696,-1.3089576928208537,1.0,29.590537000000005
607,20.51331478032994,1.1532360844421052,20.479520192553448,-1.4827274426726218,1.0,29.590537000000005
608,20.54710936810643,1.025105282529415,20.51331478032994,-1.364222306972044,1.0,29.590537000000005
609,20.58090395588292,0.5121059052270612,20.54710936810643,-0.8509187074428117,1.0,29.590537000000005
610,20.61469854365941,-0.09909205419402722,20.58090395588292,-0.025429010395301814,1.0,29.590537000000005
611,20.648493131435902,-0.5058189670353591,20.61469854365941,0.8567278608491652,1.0,29.590537000000005
612,20.682287719212393,-0.5362960031086849,20.648493131435902,1.4908230051096891,1.0,29.590537000000005
613,20.716082306988884,-0.22233480008413142,20.682287719212393,1.6813391862349367,1.0,29.590537000000005
614,20.749876894765375,0.2320645984599583,20.716082306988884,1.4341593036604872,1.0,29.590537000000005
615,20.783671482541866,0.5664745929839511,20.749876894765375,0.9272032396446507,1.0,29.590537000000005
616,20.817466070318357,0.6036253212733337,20.783671482541866,0.3863563759569655,1.0,29.590537000000005
617,20.851260658094848,0.3392129776932799,20.817466070318357,-0.04633946275422542,1.0,29.590537000000005
618,20.88505524587134,-0.06617732972881668,20.851260658094848,-0.366686011151128,1.0,29.590537000000005
619,20.91884983364783,-0.38571973678916915,20.88505524587134,-0.6568379241530531,1.0,29.590537000000005
620,20.95264442142432,-0.4545016190904139,20.91884983364783,-0.9736407114961404,1.0,29.590537000000005
621,20.98643900920081,-0.2523021949910595,20.682287719212393,1.6813391862349367,9.0,266.314833
622,21.020233596977302,0.09722224814571356,20.716082306988884,1.4341593036604872,9.0,266.314833
623,21.054028184753793,0.39586278339576497,20.749876894765375,0.9272032396446507,9.0,266.314833
624,21.087822772530284,0.4663554692464076,20.783671482541866,0.3863563759569655,9.0,266.314833
625,21.121617360306775,0.23488864755580435,20.817466070318357,-0.04633946275422542,9.0,266.314833
626,21.155411948083266,-0.2286015836888277,21.121617360306775,1.216203254701428,1.0,29.590537000000005
627,21.189206535859757,-0.7323770800665813,21.155411948083266,1.6755890928120456,1.0,29.590537000000005
628,21.223001123636248,-1.0466927292573038,20.175368902565033,1.8373588021012137,31.0,917.3066470000001
629,21.25679571141274,-1.016921317959176,20.209163490341524,1.5130592448185003,31.0,917.3066470000001
630,21.29059029918923,-0.6491802158392983,20.242958078118015,0.8878852612253296,31.0,917.3066470000001
631,21.32438488696572,-0.11586284008857968,20.276752665894506,0.23460625143869923,31.0,917.3066470000001
632,21.35817947474221,0.3334193475335851,20.310547253670997,-0.2565813551628479,31.0,917.3066470000001
633,21.391974062518702,0.5131161110122455,20.344341841447488,-0.5609269385157966,31.0,917.3066470000001
634,21.425768650295193,0.4104478458601138,20.37813642922398,-0.7820397383051367,31.0,917.3066470000001
635,21.459563238071684,0.18531849313421736,20.41193101700047,-1.0306835204712552,31.0,917.3066470000001
636,21.493357825848175,0.05338383579303382,20.44572560477696,-1.3089576928208537,31.0,917.3066470000001
637,21.527152413624666,0.1301060774392482,20.47952019255345,-1.48272744267264,31.0,917.3066470000001
638,21.560947001401157,0.34846792833854834,20.513314780329942,-1.36422230697199,31.0,917.3066470000001
639,21.594741589177648,0.5116040978194478,20.547109368106433,-0.8509187074427249,31.0,917.3066470000001
640,21.62853617695414,0.4398324286629803,20.580903955882924,-0.025429010395209076,31.0,917.3066470000001
641,21.66233076473063,0.10119140147012236,20.614698543659415,0.8567278608492318,31.0,917.3066470000001
642,21.69612535250712,-0.36696328853767884,21.155411948083266,1.6755890928120456,16.0,473.4485920000001
643,21.72991994028361,-0.7502214051027637,21.189206535859757,1.6512229258089373,16.0,473.4485920000001
644,21.763714528060103,-0.8876321251486124,21.223001123636248,1.2263466746053309,16.0,473.4485920000001
645,21.797509115836593,-0.7506614919866222,21.25679571141274,0.6305629205732529,16.0,473.4485920000001
646,21.831303703613084,-0.4308917313725338,21.29059029918923,0.09429186215741145,16.0,473.4485920000001
647,21.865098291389575,-0.06374084223400042,21.32438488696572,-0.2771678038555452,16.0,473.4485920000001
648,21.898892879166066,0.2500209280936604,20.81746607031836,-0.0463394627542591,32.0,946.8971840000002
649,21.932687466942557,0.47684628261438905,20.85126065809485,-0.36668601115115845,32.0,946.8971840000002
650,21.966482054719048,0.6294487974225832,20.885055245871342,-0.6568379241530864,32.0,946.8971840000002
651,22.00027664249554,0.7207859005371493,20.918849833647833,-0.9736407114961707,32.0,946.8971840000002
652,22.03407123027203,0.7337175511608406,20.952644421424324,-1.2622642825459327,32.0,946.8971840000002
653,22.06786581804852,0.6302943965258622,20.986439009200815,-1.3625275690741723,32.0,946.8971840000002
654,22.10166040582501,0.3906327649509547,21.020233596977306,-1.11060321944139,32.0,946.8971840000002
655,22.135454993601503,0.046631753624436646,21.054028184753797,-0.4694780869314933,32.0,946.8971840000002
656,22.16924958137799,-0.3191684509731248,21.087822772530284,0.4048308391147398,32.0,946.8971840000002
657,22.20304416915448,-0.6088463283388206,22.1354549936015,1.0497586997788966,2.0,59.18107400000001
658,22.236838756930972,-0.748667276729051,22.16924958137799,1.815529488893675,2.0,59.18107400000001
659,22.270633344707463,-0.7045165473550367,22.236838756930972,1.808740475119717,1.0,29.590537000000005
660,22.304427932483954,-0.47606917188446507,22.270633344707463,1.2001813005735051,1.0,29.590537000000005
661,22.338222520260445,-0.09516516965364685,22.304427932483954,0.5245230534061845,1.0,29.590537000000005
662,22.372017108036935,0.3622714860896712,22.338222520260445,-0.014118429334329871,1.0,29.590537000000005
663,22.405811695813426,0.7739424083786312,22.372017108036935,-0.370933140038228,1.0,29.590537000000005
664,22.439606283589917,1.0058078161846318,22.405811695813426,-0.6376390578363769,1.0,29.590537000000005
665,22.473400871366408,0.9774215139797806,22.439606283589917,-0.9330263392304016,1.0,29.590537000000005
666,22.5071954591429,0.7140888047921755,21.932687466942554,-0.9006289968115095,17.0,503.03912900000006
667,22.54099004691939,0.3387412485680574,21.966482054719044,-1.2683012961454903,17.0,503.03912900000006
668,22.57478463469588,-0.003013027364318815,22.000276642495535,-1.5249488046851956,17.0,503.03912900000006
669,22.608579222472372,-0.23503953701754784,22.034071230272026,-1.4440456013547713,17.0,503.03912900000006
670,22.642373810248863,-0.3874511510836037,22.067865818048517,-0.8991741235895943,17.0,503.03912900000006
671,22.676168398025354,-0.5459874658744451,22.101660405825008,0.026724273784132224,17.0,503.03912900000006
672,22.709962985801845,-0.7583588512061665,22.405811695813426,-0.6376390578363769,9.0,266.314833
673,22.743757573578335,-0.9815281444213477,22.439606283589917,-0.9330263392304016,9.0,266.314833
674,22.777552161354826,-1.114129076212856,22.709962985801845,1.6754425992715873,2.0,59.18107400000001
675,22.811346749131317,-1.077728266251013,22.743757573578335,1.5943539854298208,2.0,59.18107400000001
676,22.84514133690781,-0.8692256127173245,22.777552161354826,1.1492126464895676,2.0,59.18107400000001
677,22.8789359246843,-0.5419975272560071,22.811346749131317,0.5774509846071129,2.0,59.18107400000001
678,22.91273051246079,-0.14589619356880093,22.84514133690781,0.0863876755550453,2.0,59.18107400000001
679,22.94652510023728,0.3066584455470721,22.8789359246843,-0.25047893737649135,2.0,59.18107400000001
680,22.980319688013772,0.8120779839755649,22.91273051246079,-0.49589797499329785,2.0,59.18107400000001
681,23.014114275790263,1.312751297910833,22.94652510023728,-0.7580614092510595,2.0,59.18107400000001
682,23.047908863566754,1.6657416416987432,22.980319688013772,-1.074087336909899,2.0,59.18107400000001
683,23.081703451343245,1.6877980433832032,23.014114275790263,-1.3500726586697944,2.0,59.18107400000001
684,23.115498039119736,1.2605631040963305,23.047908863566754,-1.402317730208269,2.0,59.18107400000001
685,23.149292626896226,0.4275435651771802,23.081703451343245,-1.077280230212157,2.0,59.18107400000001
686,23.183087214672717,-0.5886264054783723,23.115498039119736,-0.3727894647503968,2.0,59.18107400000001
687,23.21688180244921,-1.470432555373651,23.149292626896226,0.5231366548163489,2.0,59.18107400000001
688,23.2506763902257,-1.9465118324794577,23.183087214672717,1.3091010235833977,2.0,59.18107400000001
689,23.28447097800219,-1.908361957829057,23.21688180244921,1.7201743278638386,2.0,59.18107400000001
690,23.31826556577868,-1.4393270870715789,23.2506763902257,1.6590663971276476,2.0,59.18107400000001
691,23.352060153555172,-0.7494268580888166,23.28447097800219,1.2293021447907553,2.0,59.18107400000001
692,23.385854741331663,-0.06465020757522656,23.31826556577868,0.6555918598669794,2.0,59.18107400000001
693,23.419649329108154,0.463566874541922,23.352060153555172,0.14757291307814863,2.0,59.18107400000001
694,23.453443916884645,0.7894417445018759,23.385854741331663,-0.20612413370437338,2.0,59.18107400000001
695,23.487238504661136,0.9490020335024315,23.419649329108154,-0.4520946677103591,2.0,59.18107400000001
696,23.521033092437627,1.0120308089380847,23.453443916884645,-0.694805498481242,2.0,59.18107400000001
697,23.554827680214117,1.03844283636227,23.487238504661136,-0.9857304978489483,2.0,59.18107400000001
698,23.58862226799061,1.0535672133217446,23.521033092437627,-1.2568423938429667,2.0,59.18107400000001
699,23.6224168557671,1.045208522879344,23.554827680214117,-1.3467117417158294,2.0,59.18107400000001
700,23.65621144354359,0.9767718007378662,23.58862226799061,-1.106114450199238,2.0,59.18107400000001
701,23.69000603132008,0.8060675220754031,23.6224168557671,-0.5148000809105915,2.0,59.18107400000001
702,23.723800619096572,0.5035569703467341,23.65621144354359,0.2712647432122943,2.0,59.18107400000001
703,23.757595206873063,0.07207551240438015,23.69000603132008,0.9808155842274012,2.0,59.18107400000001
704,23.79138979464955,-0.4324148039894975,23.72380061909657,1.3640241154200252,2.0,59.18107400000001
705,23.82518438242604,-0.8956278653979285,23.75759520687306,1.3209798740352776,2.0,59.18107400000001
706,23.858978970202532,-1.1783189794745852,23.79138979464955,0.9421976673635422,2.0,59.18107400000001
707,23.892773557979023,-1.1849300574760455,23.82518438242604,0.4390168084732845,2.0,59.18107400000001
708,23.926568145755514,-0.9235035349981044,23.858978970202532,0.012311413398128437,2.0,59.18107400000001
709,23.960362733532005,-0.5064177957549744,23.892773557979023,-0.2556875965927802,2.0,59.18107400000001
710,23.994157321308496,-0.0867361708770595,23.926568145755514,-0.4208599512989529,2.0,59.18107400000001
711,24.027951909084987,0.2211718336720038,23.960362733532005,-0.6017549841880218,2.0,59.18107400000001
712,24.061746496861478,0.3801599371111624,23.994157321308496,-0.8639773488018313,2.0,59.18107400000001
713,24.09554108463797,0.4123657064063976,23.79138979464955,0.9421976673635422,9.0,266.314833
714,24.12933567241446,0.35377237447376875,23.82518438242604,0.4390168084732845,9.0,266.314833
715,24.16313026019095,0.22119868628901293,24.09554108463797,-1.062214257415678,2.0,59.18107400000001
716,24.19692484796744,0.012269670658747452,24.12933567241446,-0.47071118521039595,2.0,59.18107400000001
717,24.230719435743932,-0.26716410612146313,24.16313026019095,0.36645145516726313,2.0,59.18107400000001
718,24.264514023520423,-0.571593775149162,24.19692484796744,1.1681955458140227,2.0,59.18107400000001
719,24.298308611296914,-0.808694703184217,24.230719435743932,1.64992238871087,2.0,59.18107400000001
720,24.332103199073405,-0.8727342429618304,24.264514023520423,1.6697485877192353,2.0,59.18107400000001
721,24.365897786849896,-0.7068331615837504,24.298308611296914,1.2915978569908426,2.0,59.18107400000001
722,24.399692374626387,-0.3532803231945076,24.332103199073405,0.7288576446616458,2.0,59.18107400000001
723,24.433486962402878,0.05252461488637857,24.09554108463797,-1.062214257415678,10.0,295.90537000000006
724,24.46728155017937,0.3529706779330881,24.12933567241446,-0.47071118521039595,10.0,295.90537000000006
725,24.50107613795586,0.4604596790523712,24.16313026019095,0.36645145516726313,10.0,295.90537000000006
726,24.53487072573235,0.40599444475673907,24.19692484796744,1.1681955458140227,10.0,295.90537000000006
727,24.56866531350884,0.30933700456667357,24.46728155017937,-0.573579578206501,3.0,88.77161100000001
728,24.602459901285332,0.2918559090019638,24.50107613795586,-0.8335848962614226,3.0,88.77161100000001
729,24.636254489061823,0.3917248830873484,24.53487072573235,-1.10919643753324,3.0,88.77161100000001
730,24.670049076838314,0.5379392119755694,24.56866531350884,-1.243889183441095,3.0,88.77161100000001
731,24.703843664614805,0.5990334818730122,24.602459901285332,-1.0651980644829184,3.0,88.77161100000001
732,24.737638252391296,0.4724030751721774,24.636254489061823,-0.514825643293535,3.0,88.77161100000001
733,24.771432840167787,0.15544578756475105,24.670049076838314,0.2786730991211894,3.0,88.77161100000001
734,24.805227427944278,-0.2451040179622812,24.703843664614805,1.0410818429856874,3.0,88.77161100000001
735,24.83902201572077,-0.5688999116738964,25.007994954603223,-1.137650662154769,-5.0,-147.95268500000003
736,24.87281660349726,-0.687336346325591,24.771432840167787,1.4802430640498756,3.0,88.77161100000001
737,24.90661119127375,-0.5674915107630581,24.805227427944278,1.074556800766554,3.0,88.77161100000001
738,24.94040577905024,-0.2792595134678744,24.83902201572077,0.4834679797395675,3.0,88.77161100000001
739,24.974200366826732,0.05294736207332034,24.87281660349726,-0.06528569245191834,3.0,88.77161100000001
740,25.007994954603223,0.32005054244910947,24.90661119127375,-0.4501266971635684,3.0,88.77161100000001
741,25.041789542379714,0.4783752200775014,24.94040577905024,-0.6933244339898831,3.0,88.77161100000001
742,25.075584130156205,0.5545223158114055,24.974200366826732,-0.898498551610788,3.0,88.77161100000001
743,25.109378717932696,0.6049767493930138,25.007994954603223,-1.137650662154769,3.0,88.77161100000001
744,25.143173305709187,0.656208861573932,25.041789542379714,-1.3680531870416606,3.0,88.77161100000001
745,25.176967893485678,0.6674378077214784,25.075584130156205,-1.4387312892214164,3.0,88.77161100000001
746,25.21076248126217,0.5488184457256238,25.109378717932696,-1.1870631553112037,3.0,88.77161100000001
747,25.24455706903866,0.2301954161367083,25.143173305709187,-0.5641574170294446,3.0,88.77161100000001
748,25.27835165681515,-0.26502782194790064,25.143173305709187,-0.5641574170294446,4.0,118.36214800000002
749,25.31214624459164,-0.7977396174239734,25.176967893485678,0.2967427813901525,4.0,118.36214800000002
750,25.345940832368132,-1.1693720170356368,25.21076248126217,1.1221380506806256,4.0,118.36214800000002
751,25.379735420144623,-1.2280999052956187,25.24455706903866,1.6320207300936143,4.0,118.36214800000002
752,25.413530007921114,-0.9558727380060151,25.27835165681515,1.6838449656431365,4.0,118.36214800000002
753,25.4473245956976,-0.47632281251647446,25.312146244591638,1.3362445009510462,4.0,118.36214800000002
754,25.481119183474092,0.020526897517286664,25.34594083236813,0.7953373751478745,4.0,118.36214800000002
755,25.514913771250583,0.38136091796321037,25.37973542014462,0.28356504004292804,4.0,118.36214800000002
756,25.548708359027074,0.5504314459835333,25.41353000792111,-0.08203944377819927,4.0,118.36214800000002
757,25.582502946803565,0.5607433536161424,25.954243412344965,-0.4402669050310525,-11.0,-325.49590700000005
758,25.616297534580056,0.48619138432331377,25.988038000121456,-0.685372572248561,-11.0,-325.49590700000005
759,25.650092122356547,0.4003634104745557,26.021832587897947,-0.9771093529929877,-11.0,-325.49590700000005
760,25.683886710133038,0.3541037941368447,26.055627175674438,-1.2846899280444166,-11.0,-325.49590700000005
761,25.71768129790953,0.3554694933821531,26.08942176345093,-1.4621066271872443,-11.0,-325.49590700000005
762,25.75147588568602,0.3505731567553618,26.12321635122742,-1.3345911029355615,-11.0,-325.49590700000005
763,25.78527047346251,0.23391865785849644,26.15701093900391,-0.8251883008475279,-11.0,-325.49590700000005
764,25.819065061239,-0.0893126676097552,26.1908055267804,-0.03687347605539842,-11.0,-325.49590700000005
765,25.852859649015492,-0.6144435140803746,26.224600114556893,0.7715332106362851,-11.0,-325.49590700000005
766,25.886654236791983,-1.189273730100763,26.258394702333383,1.3100601863402155,-11.0,-325.49590700000005
767,25.920448824568474,-1.5622489002020776,26.292189290109874,1.409010801962023,-11.0,-325.49590700000005
768,25.954243412344965,-1.516704515816113,26.325983877886365,1.1025784995105488,-11.0,-325.49590700000005
769,25.988038000121456,-1.01052036901687,26.359778465662856,0.5933489001387843,-11.0,-325.49590700000005
770,26.021832587897947,-0.22266769992266391,26.393573053439347,0.12347380083982996,-11.0,-325.49590700000005
771,26.055627175674438,0.5358303250118727,26.427367641215838,-0.16395306410801633,-11.0,-325.49590700000005
772,26.08942176345093,0.995174235704689,26.46116222899233,-0.28800527390068675,-11.0,-325.49590700000005
773,26.12321635122742,1.0716071449409037,26.49495681676882,-0.3834466478588155,-11.0,-325.49590700000005
774,26.15701093900391,0.8904821517858548,26.52875140454531,-0.5798276386869948,-11.0,-325.49590700000005
775,26.1908055267804,0.6795138052199216,26.5625459923218,-0.8866125984417993,-11.0,-325.49590700000005
776,26.224600114556893,0.6107391003732492,26.596340580098293,-1.1609472783392598,-11.0,-325.49590700000005
777,26.258394702333383,0.6964013783543886,26.630135167874784,-1.1842904321181689,-11.0,-325.49590700000005
778,26.292189290109874,0.7979825803089501,26.663929755651274,-0.8052660671848624,-11.0,-325.49590700000005
779,26.325983877886365,0.7290210382206852,27.204643160075126,-0.14487180879853753,-26.0,-769.3539620000001
780,26.359778465662856,0.37831097454320584,27.238437747851616,0.8054910052075707,-26.0,-769.3539620000001
781,26.393573053439347,-0.2189487032323738,27.272232335628107,1.565175875555846,-26.0,-769.3539620000001
782,26.427367641215838,-0.8916267556439693,27.3060269234046,1.8725150322120654,-26.0,-769.3539620000001
783,26.46116222899233,-1.4073538449622178,27.33982151118109,1.6708091121681883,-26.0,-769.3539620000001
784,26.49495681676882,-1.5705398935632195,27.37361609895758,1.1168500038032703,-26.0,-769.3539620000001
785,26.52875140454531,-1.3032447826062363,26.359778465662856,0.5933489001387843,5.0,147.95268500000003
786,26.5625459923218,-0.6795134235427882,26.393573053439347,0.12347380083982996,5.0,147.95268500000003
787,26.596340580098293,0.1016390567982966,26.427367641215838,-0.16395306410801633,5.0,147.95268500000003
788,26.630135167874784,0.7987398715859338,26.46116222899233,-0.28800527390068675,5.0,147.95268500000003
789,26.663929755651274,1.2315501011887389,26.49495681676882,-0.3834466478588155,5.0,147.95268500000003
790,26.697724343427765,1.3494731663075556,26.52875140454531,-0.5798276386869948,5.0,147.95268500000003
791,26.731518931204256,1.2207462726034526,26.5625459923218,-0.8866125984417993,5.0,147.95268500000003
792,26.765313518980747,0.9530118008864197,26.596340580098293,-1.1609472783392598,5.0,147.95268500000003
793,26.799108106757238,0.6107536787051043,26.630135167874784,-1.1842904321181689,5.0,147.95268500000003
794,26.83290269453373,0.1958747833202726,26.663929755651274,-0.8052660671848624,5.0,147.95268500000003
795,26.86669728231022,-0.2989913414895616,26.697724343427765,-0.059224586953770524,5.0,147.95268500000003
796,26.90049187008671,-0.8174472878650959,27.001875633416184,-0.5981478397074685,-3.0,-88.77161100000001
797,26.9342864578632,-1.2177001366821354,27.035670221192674,-0.8289519270644796,-3.0,-88.77161100000001
798,26.968081045639693,-1.3359792258900134,26.799108106757238,1.7358722205234756,5.0,147.95268500000003
799,27.001875633416184,-1.0991259060737864,26.83290269453373,1.4905568011912202,5.0,147.95268500000003
800,27.035670221192674,-0.5978377328394303,26.86669728231022,0.9319502962352232,5.0,147.95268500000003
801,27.069464808969162,-0.04919669754447789,27.170848572298635,-0.9499997615049364,-3.0,-88.77161100000001
802,27.103259396745653,0.33521893368253786,27.204643160075126,-0.14487180879853753,-3.0,-88.77161100000001
803,27.137053984522144,0.4757673743457492,27.238437747851616,0.8054910052075707,-3.0,-88.77161100000001
804,27.170848572298635,0.44767565498459283,27.508794450063544,-0.711236672696172,-10.0,-295.90537000000006
805,27.204643160075126,0.39039118914530824,27.542589037840035,-1.013180205905427,-10.0,-295.90537000000006
806,27.238437747851616,0.3855772954986636,27.576383625616526,-1.3578047061137928,-10.0,-295.90537000000006
807,27.272232335628107,0.4014998500911298,27.610178213393016,-1.623081572026109,-10.0,-295.90537000000006
808,27.3060269234046,0.3372064183309576,27.643972801169507,-1.6064581065426684,-10.0,-295.90537000000006
809,27.33982151118109,0.1207219884673544,27.677767388946,-1.1623192865282777,-10.0,-295.90537000000006
810,27.37361609895758,-0.2179089637576553,27.204643160075126,-0.14487180879853753,5.0,147.95268500000003
811,27.40741068673407,-0.5525678232532222,27.238437747851616,0.8054910052075707,5.0,147.95268500000003
812,27.441205274510562,-0.7402488207116118,27.272232335628107,1.565175875555846,5.0,147.95268500000003
813,27.474999862287053,-0.7147074715899508,27.3060269234046,1.8725150322120654,5.0,147.95268500000003
814,27.508794450063544,-0.5261508246737301,27.33982151118109,1.6708091121681883,5.0,147.95268500000003
815,27.542589037840035,-0.3000447237135354,27.37361609895758,1.1168500038032703,5.0,147.95268500000003
816,27.576383625616526,-0.14910542341741875,27.40741068673407,0.4691993979189914,5.0,147.95268500000003
817,27.610178213393016,-0.10379735043948618,27.441205274510562,-0.06588173342049254,5.0,147.95268500000003
818,27.643972801169507,-0.10515529272756707,27.474999862287053,-0.43244673950286955,5.0,147.95268500000003
819,27.677767388946,-0.055447523880278037,27.508794450063544,-0.711236672696172,5.0,147.95268500000003
820,27.71156197672249,0.11121696497148365,28.0495078544874,-0.7888455470456021,-10.0,-295.90537000000006
821,27.74535656449898,0.38160235412966287,28.08330244226389,-1.105983271892555,-10.0,-295.90537000000006
822,27.77915115227547,0.6681987296175066,28.11709703004038,-1.386727710064788,-10.0,-295.90537000000006
823,27.812945740051962,0.8643340424383585,28.15089161781687,-1.429612288287808,-10.0,-295.90537000000006
824,27.846740327828453,0.9107576510455211,28.184686205593362,-1.0679818856714423,-10.0,-295.90537000000006
825,27.880534915604944,0.8225850513457297,28.218480793369853,-0.3022548966456353,-10.0,-295.90537000000006
826,27.914329503381435,0.6574636593713535,28.252275381146344,0.6598824928963973,-10.0,-295.90537000000006
827,27.948124091157926,0.45721759210140156,28.286069968922835,1.4903552615931355,-10.0,-295.90537000000006
828,27.981918678934417,0.21896279747835934,28.319864556699326,1.9058127180116504,-10.0,-295.90537000000006
829,28.015713266710907,-0.07570245428666594,28.353659144475817,1.8091670820663237,-10.0,-295.90537000000006
830,28.0495078544874,-0.40261591169798766,28.387453732252308,1.3215041433421855,-10.0,-295.90537000000006
831,28.08330244226389,-0.67136653782987,28.4212483200288,0.690591904187979,-10.0,-295.90537000000006
832,28.11709703004038,-0.7695140120035951,28.45504290780529,0.13974143684289622,-10.0,-295.90537000000006
833,28.15089161781687,-0.6406265332263746,28.725399610017217,-0.8729781190900512,-17.0,-503.03912900000006
834,28.184686205593362,-0.3278838357727181,28.759194197793708,0.16897448179465033,-17.0,-503.03912900000006
835,28.218480793369853,0.05260567543850445,29.063345487782122,-0.6865729314406784,-25.0,-739.7634250000001
836,28.252275381146344,0.38338945653467066,29.097140075558613,-0.9979633003702943,-25.0,-739.7634250000001
837,28.286069968922835,0.6040584820531691,28.15089161781687,-1.429612288287808,4.0,118.36214800000002
838,28.319864556699326,0.7156377944435484,28.184686205593362,-1.0679818856714423,4.0,118.36214800000002
839,28.353659144475817,0.736577641132662,28.218480793369853,-0.3022548966456353,4.0,118.36214800000002
840,28.387453732252308,0.6541087439516196,29.232318426664577,-0.6904629268329344,-25.0,-739.7634250000001
841,28.4212483200288,0.4179251337098899,28.556426671134762,-0.8541894346867674,-4.0,-118.36214800000002
842,28.45504290780529,-0.012080069146273853,28.590221258911253,-1.2585295851038794,-4.0,-118.36214800000002
843,28.48883749558178,-0.601684904345907,28.353659144475817,1.8091670820663237,4.0,118.36214800000002
844,28.52263208335827,-1.2188478591455858,28.387453732252308,1.3215041433421855,4.0,118.36214800000002
845,28.556426671134762,-1.6744107873098886,28.4212483200288,0.690591904187979,4.0,118.36214800000002
846,28.590221258911253,-1.7989146566529033,28.45504290780529,0.13974143684289622,4.0,118.36214800000002
847,28.624015846687744,-1.5113214807425008,28.48883749558178,-0.2469533816594433,4.0,118.36214800000002
848,28.657810434464235,-0.85673969040093,28.52263208335827,-0.5361204400449929,4.0,118.36214800000002
849,28.691605022240726,-0.00771218744903888,28.556426671134762,-0.8541894346867674,4.0,118.36214800000002
850,28.725399610017213,0.7768860025884737,28.59022125891125,-1.2585295851038367,4.0,118.36214800000002
851,28.759194197793704,1.2348614491799401,28.62401584668774,-1.6581142444538048,4.0,118.36214800000002
852,28.792988785570195,1.2015245465575033,28.65781043446423,-1.8409198342596895,4.0,118.36214800000002
853,28.826783373346686,0.6852798985305565,28.96196172445265,0.34139440095163054,-4.0,-118.36214800000002
854,28.860577961123177,-0.12127149197233401,28.99575631222914,-0.11614445325968834,-4.0,-118.36214800000002
855,28.894372548899668,-0.9091262277266116,29.266113014441068,0.208750197037818,-11.0,-325.49590700000005
856,28.92816713667616,-1.3773602397785731,29.29990760221756,1.1101087114099157,-11.0,-325.49590700000005
857,28.96196172445265,-1.3598621082321936,29.33370218999405,1.6982784266833646,-11.0,-325.49590700000005
858,28.99575631222914,-0.8926470154511227,29.36749677777054,1.7959589877013822,-11.0,-325.49590700000005
859,29.02955090000563,-0.1861520087959047,29.40129136554703,1.443797394836446,-11.0,-325.49590700000005
860,29.063345487782122,0.484526940986329,29.435085953323522,0.8517710521438457,-11.0,-325.49590700000005
861,29.097140075558613,0.9137931837007033,29.468880541100013,0.2599724218220258,-11.0,-325.49590700000005
862,29.130934663335104,1.0557989827761747,29.502675128876504,-0.19698548931874904,-11.0,-325.49590700000005
863,29.164729251111595,1.0300963224575874,29.536469716652995,-0.5361211059247223,-11.0,-325.49590700000005
864,29.198523838888086,1.0404258246286424,29.570264304429486,-0.8605727797322752,-11.0,-325.49590700000005
865,29.232318426664577,1.2388360274870365,29.604058892205977,-1.2350798165816368,-11.0,-325.49590700000005
866,29.266113014441068,1.6053705911149445,29.637853479982468,-1.5934195895488028,-11.0,-325.49590700000005
867,29.29990760221756,1.930993775391605,29.67164806775896,-1.7472993639114789,-11.0,-325.49590700000005
868,29.33370218999405,1.9389697427310486,29.70544265553545,-1.498595208649899,-11.0,-325.49590700000005
869,29.36749677777054,1.4743392038641683,29.73923724331194,-0.7851374108060967,-11.0,-325.49590700000005
870,29.40129136554703,0.6273990057657938,29.77303183108843,0.23871147395681006,-11.0,-325.49590700000005
871,29.435085953323522,-0.3002291870888296,30.313745235512283,1.1196731118957184,-26.0,-769.3539620000001
872,29.468880541100013,-0.9648891849079054,30.347539823288773,1.8288777139483277,-26.0,-769.3539620000001
873,29.502675128876504,-1.1701746631228367,30.381334411065264,2.019284838771234,-26.0,-769.3539620000001
874,29.536469716652995,-0.9555487750758996,30.415128998841755,1.7124174209099445,-26.0,-769.3539620000001
875,29.570264304429486,-0.5439642615201963,30.448923586618246,1.1129260485448174,-26.0,-769.3539620000001
876,29.604058892205977,-0.20408242139519753,30.482718174394737,0.4702290329471659,-26.0,-769.3539620000001
877,29.637853479982468,-0.11965755613182458,30.516512762171228,-0.06134563122751153,-26.0,-769.3539620000001
878,29.67164806775896,-0.3275216396312812,30.55030734994772,-0.47681730232858227,-26.0,-769.3539620000001
879,29.70544265553545,-0.7340758187896163,30.58410193772421,-0.8637888308517871,-26.0,-769.3539620000001
880,29.73923724331194,-1.1853832704441416,30.65169111327719,-1.6733674774275475,-27.0,-798.9444990000002
881,29.77303183108843,-1.5492269309476971,30.685485701053683,-1.853891911253912,-27.0,-798.9444990000002
882,29.806826418864922,-1.7669093533845965,29.164729251111595,-1.4799596025976207,19.0,562.2202030000001
883,29.840621006641413,-1.8539809818230937,29.198523838888086,-1.2956217495478761,19.0,562.2202030000001
884,29.874415594417904,-1.8620482173397455,29.232318426664577,-0.6904629268329344,19.0,562.2202030000001
885,29.908210182194395,-1.8323524346290967,29.77303183108843,0.23871147395681006,4.0,118.36214800000002
886,29.942004769970886,-1.7646934469426065,29.806826418864922,1.2488384641569412,4.0,118.36214800000002
887,29.975799357747377,-1.6075781285179034,29.840621006641413,1.9057202347159066,4.0,118.36214800000002
888,30.009593945523868,-1.2688586869356462,30.14477229662983,-1.5313354791293772,-4.0,-118.36214800000002
889,30.04338853330036,-0.6527233648925649,29.908210182194395,1.652627488118057,4.0,118.36214800000002
890,30.07718312107685,0.2749760439510063,29.942004769970886,1.0211462177417983,4.0,118.36214800000002
891,30.11097770885334,1.4234076510844484,29.975799357747377,0.3905204178511693,4.0,118.36214800000002
892,30.14477229662983,2.5747545894548645,30.009593945523868,-0.09069127459172607,4.0,118.36214800000002
893,30.178566884406322,3.4705569991890073,30.04338853330036,-0.437429665490907,4.0,118.36214800000002
894,30.212361472182813,3.9308046547454905,30.347539823288777,1.8288777139483476,-4.0,-118.36214800000002
895,30.246156059959304,3.912644856842189,30.381334411065268,2.0192848387712017,-4.0,-118.36214800000002
896,30.279950647735795,3.47633247625348,30.41512899884176,1.7124174209098815,-4.0,-118.36214800000002
897,30.313745235512286,2.7138173528772698,30.178566884406322,-1.7371190986625518,4.0,118.36214800000002
898,30.347539823288773,1.7124127468133785,30.21236147218281,-1.5536612426684875,4.0,118.36214800000002
899,30.381334411065264,0.5705043008448447,30.516512762171228,-0.06134563122751153,-4.0,-118.36214800000002
900,30.415128998841755,-0.5742361955453523,30.55030734994772,-0.47681730232858227,-4.0,-118.36214800000002
901,30.448923586618246,-1.5506098058138695,31.631734158795425,-0.9050211395063292,-35.0,-1035.6687950000003
902,30.482718174394737,-2.203617527304822,31.665528746571916,-1.3227237943989507,-35.0,-1035.6687950000003
903,30.516512762171228,-2.455783569425412,31.699323334348406,-1.7066758173027619,-35.0,-1035.6687950000003
904,30.55030734994772,-2.334715047677884,30.448923586618246,1.1129260485448174,3.0,88.77161100000001
905,30.58410193772421,-1.9468063036117973,30.482718174394737,0.4702290329471659,3.0,88.77161100000001
906,30.6178965255007,-1.41851615528638,30.516512762171228,-0.06134563122751153,3.0,88.77161100000001
907,30.65169111327719,-0.8508202173995886,31.564144983242443,-0.1761562349813554,-27.0,-798.9444990000002
908,30.685485701053683,-0.3183645481331787,31.86829627323086,1.1461162317613258,-35.0,-1035.6687950000003
909,30.719280288830173,0.10053114546905981,31.902090861007352,1.7803544661770618,-35.0,-1035.6687950000003
910,30.753074876606664,0.31434083544501784,31.935885448783843,1.8831987025363741,-35.0,-1035.6687950000003
911,30.786869464383155,0.2646466534913065,31.969680036560334,1.4883900285519402,-35.0,-1035.6687950000003
912,30.820664052159646,-0.0026632838207410444,32.003474624336825,0.7954527203142693,-35.0,-1035.6687950000003
913,30.854458639936137,-0.320260206047614,32.037269212113316,0.05753102374458155,-35.0,-1035.6687950000003
914,30.888253227712628,-0.480546227867306,32.07106379988981,-0.525901775731673,-35.0,-1035.6687950000003
915,30.92204781548912,-0.36725842993814956,32.1048583876663,-0.8603123467714607,-35.0,-1035.6687950000003
916,30.95584240326561,-0.034844996610187536,32.13865297544279,-0.9468896592490285,-35.0,-1035.6687950000003
917,30.9896369910421,0.32872342107804453,32.17244756321928,-0.8433585309556236,-35.0,-1035.6687950000003
918,31.02343157881859,0.5279048512049851,32.20624215099577,-0.6277375002475031,-35.0,-1035.6687950000003
919,31.057226166595083,0.4825674679602287,32.24003673877226,-0.3770291209872008,-35.0,-1035.6687950000003
920,31.091020754371574,0.26611261367791794,32.27383132654875,-0.15457939192291836,-35.0,-1035.6687950000003
921,31.124815342148064,0.043075649544945256,32.30762591432524,0.000592234778333958,-35.0,-1035.6687950000003
922,31.158609929924555,-0.04078554814786554,32.341420502101734,0.0799488497804208,-35.0,-1035.6687950000003
923,31.192404517701046,0.06038914316703819,32.375215089878225,0.10141859718243722,-35.0,-1035.6687950000003
924,31.226199105477537,0.2842724395090585,32.409009677654716,0.09576030267890137,-35.0,-1035.6687950000003
925,31.259993693254028,0.5133719858713591,30.6178965255007,-1.2829086257817552,19.0,562.2202030000001
926,31.29378828103052,0.6439336268734679,30.65169111327719,-1.6733674774275475,19.0,562.2202030000001
927,31.32758286880701,0.6301625212710341,30.685485701053683,-1.853891911253912,19.0,562.2202030000001
928,31.3613774565835,0.48943576135706524,32.54418802876068,0.1568248402527295,-35.0,-1035.6687950000003
929,31.39517204435999,0.27754688529634436,32.57798261653717,0.18252395050073358,-35.0,-1035.6687950000003
930,31.428966632136483,0.053624968244239284,32.61177720431366,0.19563987601313682,-35.0,-1035.6687950000003
931,31.462761219912974,-0.1460365309587863,32.64557179209015,0.1950708077977663,-35.0,-1035.6687950000003
932,31.496555807689465,-0.3140616780809524,32.17244756321928,-0.8433585309556236,-20.0,-591.8107400000001
933,31.530350395465955,-0.4593370451007757,32.20624215099577,-0.6277375002475031,-20.0,-591.8107400000001
934,31.564144983242446,-0.5875671025525722,31.192404517701046,-1.880835180782898,11.0,325.49590700000005
935,31.597939571018937,-0.6888771251923559,32.780750143196116,0.17994220531340982,-35.0,-1035.6687950000003
936,31.631734158795428,-0.7391467323367654,31.496555807689465,0.9579391381521334,4.0,118.36214800000002
937,31.66552874657192,-0.7116521101692185,31.530350395465955,0.3053524953107591,4.0,118.36214800000002
938,31.69932333434841,-0.5899739795562975,31.564144983242446,-0.17615623498140606,4.0,118.36214800000002
939,31.7331179221249,-0.37536149687198583,31.597939571018937,-0.5405710691760476,4.0,118.36214800000002
940,31.766912509901392,-0.08796448610133599,31.631734158795428,-0.9050211395063675,4.0,118.36214800000002
941,31.800707097677883,0.23493590145905913,31.66552874657192,-1.3227237943989947,4.0,118.36214800000002
942,31.834501685454374,0.5415973678690269,31.69932333434841,-1.7066758173028023,4.0,118.36214800000002
943,31.868296273230865,0.7712784835465625,31.7331179221249,-1.85863341884674,4.0,118.36214800000002
944,31.902090861007355,0.8672771898027802,32.30762591432524,0.000592234778333958,-12.0,-355.08644400000003
945,31.935885448783846,0.798545717250575,32.341420502101734,0.0799488497804208,-12.0,-355.08644400000003
946,31.969680036560337,0.5803735522324253,33.152490608737516,-0.14194709855727758,-35.0,-1035.6687950000003
947,32.003474624336825,0.2775263304069853,32.13865297544279,-0.9468896592490285,-4.0,-118.36214800000002
948,32.037269212113316,-0.019807585195255575,32.17244756321928,-0.8433585309556236,-4.0,-118.36214800000002
949,32.07106379988981,-0.23773615138493553,32.20624215099577,-0.6277375002475031,-4.0,-118.36214800000002
950,32.1048583876663,-0.35207900720839397,32.51039344098419,0.12586526164616096,-12.0,-355.08644400000003
951,32.13865297544279,-0.3895337858788255,32.27383132654875,-0.15457939192291836,-4.0,-118.36214800000002
952,32.17244756321928,-0.39482016270234027,32.27383132654875,-0.15457939192291836,-3.0,-88.77161100000001
953,32.20624215099577,-0.3882529034799619,32.30762591432524,0.000592234778333958,-3.0,-88.77161100000001
954,32.24003673877226,-0.3473480871708332,32.341420502101734,0.0799488497804208,-3.0,-88.77161100000001
955,32.27383132654875,-0.22932601786345966,32.375215089878225,0.10141859718243722,-3.0,-88.77161100000001
956,32.30762591432524,-0.019173600563057083,32.67936637986664,0.18556759426032005,-11.0,-325.49590700000005
957,32.341420502101734,0.23603871595771436,32.746955555419625,0.17243959042949267,-12.0,-355.08644400000003
958,32.375215089878225,0.4397561856630479,32.27383132654875,-0.15457939192291836,3.0,88.77161100000001
959,32.409009677654716,0.5020745606630677,33.32146354761997,-1.532515861929614,-27.0,-798.9444990000002
960,32.44280426543121,0.39815814453914966,33.35525813539646,-0.7527628562713077,-27.0,-798.9444990000002
961,32.4765988532077,0.1838111578544192,32.57798261653717,0.18252395050073358,-3.0,-88.77161100000001
962,32.51039344098419,-0.041525709186723485,33.152490608737516,-0.14194709855727758,-19.0,-562.2202030000001
963,32.54418802876068,-0.19147325352616515,31.969680036560334,1.4883900285519402,17.0,503.03912900000006
964,32.57798261653717,-0.22568365516284516,32.003474624336825,0.7954527203142693,17.0,503.03912900000006
965,32.61177720431366,-0.14487272206018517,32.037269212113316,0.05753102374458155,17.0,503.03912900000006
966,32.64557179209015,0.030480822621138253,32.07106379988981,-0.525901775731673,17.0,503.03912900000006
967,32.67936637986664,0.2700639560231301,32.1048583876663,-0.8603123467714607,17.0,503.03912900000006
968,32.713160967643134,0.5262691176862898,33.18628519651401,-0.5375440169197175,-14.0,-414.26751800000005
969,32.746955555419625,0.724797846292564,33.2200797842905,-1.0798070218251499,-14.0,-414.26751800000005
970,32.780750143196116,0.7737013352740831,33.25387437206699,-1.584056580687704,-14.0,-414.26751800000005
971,32.81454473097261,0.5990507412773924,33.28766895984348,-1.8008683523251847,-14.0,-414.26751800000005
972,32.8483393187491,0.19169772818185413,32.27383132654875,-0.15457939192291836,17.0,503.03912900000006
973,32.88213390652559,-0.3673738277680838,32.1048583876663,-0.8603123467714607,23.0,680.5823510000001
974,32.91592849430208,-0.9256554866892355,32.13865297544279,-0.9468896592490285,23.0,680.5823510000001
975,32.94972308207857,-1.3145797986855567,32.17244756321928,-0.8433585309556236,23.0,680.5823510000001
976,32.98351766985506,-1.413129433738046,32.20624215099577,-0.6277375002475031,23.0,680.5823510000001
977,33.01731225763155,-1.1912195184858498,32.24003673877226,-0.3770291209872008,23.0,680.5823510000001
978,33.05110684540804,-0.7199647196775941,32.27383132654875,-0.15457939192291836,23.0,680.5823510000001
979,33.084901433184534,-0.153773170683607,32.30762591432524,0.000592234778333958,23.0,680.5823510000001
980,33.118696020961025,0.30483271894099967,32.341420502101734,0.0799488497804208,23.0,680.5823510000001
981,33.152490608737516,0.4588575706515948,32.375215089878225,0.10141859718243722,23.0,680.5823510000001
982,33.18628519651401,0.19824052261744102,32.409009677654716,0.09576030267890137,23.0,680.5823510000001
983,33.2200797842905,-0.40956416249731736,32.44280426543121,0.09069678674695282,23.0,680.5823510000001
984,33.25387437206699,-1.087430397451196,32.4765988532077,0.10074122177942117,23.0,680.5823510000001
985,33.28766895984348,-1.444525463275025,32.51039344098419,0.12586526164616096,23.0,680.5823510000001
986,33.32146354761997,-1.1860873871160442,32.54418802876068,0.1568248402527295,23.0,680.5823510000001
987,33.35525813539646,-0.3118491229796188,32.57798261653717,0.18252395050073358,23.0,680.5823510000001
988,33.38905272317295,0.847972629786941,32.61177720431366,0.19563987601313682,23.0,680.5823510000001
989,33.42284731094944,1.8052633153683602,32.64557179209015,0.1950708077977663,23.0,680.5823510000001
990,33.456641898725934,2.184335914659869,32.91592849430208,0.1320958797770775,16.0,473.4485920000001
991,33.490436486502425,1.907342917534201,32.94972308207857,0.06465592760035159,16.0,473.4485920000001
992,33.524231074278916,1.1874701409582515,32.98351766985506,0.006154143769066254,16.0,473.4485920000001
993,33.55802566205541,0.3696539589267109,33.01731225763155,-0.011590703640050022,16.0,473.4485920000001
994,33.5918202498319,-0.2515445685800101,33.05110684540804,0.020773234968428797,16.0,473.4485920000001
995,33.62561483760839,-0.5292447265120106,33.084901433184534,0.06699145913358154,16.0,473.4485920000001
996,33.65940942538488,-0.4567611208887755,33.118696020961025,0.04439989860252283,16.0,473.4485920000001
997,33.69320401316137,-0.10859097545711952,33.152490608737516,-0.14194709855727758,16.0,473.4485920000001
998,33.72699860093786,0.4056889700559112,33.18628519651401,-0.5375440169197175,16.0,473.4485920000001
999,33.76079318871435,0.9513403755897342,33.2200797842905,-1.0798070218251499,16.0,473.4485920000001
1000,33.79458777649084,1.3655612771284464,33.25387437206699,-1.584056580687704,16.0,473.4485920000001
1001,33.828382364267334,1.4789765656417388,33.28766895984348,-1.8008683523251847,16.0,473.4485920000001
1002,33.862176952043825,1.1746180846751488,33.32146354761997,-1.532515861929614,16.0,473.4485920000001
1003,33.895971539820316,0.45667350194584033,33.35525813539646,-0.7527628562713077,16.0,473.4485920000001
1004,33.92976612759681,-0.5208033138110754,33.38905272317295,0.34337450530682284,16.0,473.4485920000001
1005,33.9635607153733,-1.4942216001774526,33.42284731094944,1.4043483120970788,16.0,473.4485920000001
1006,33.99735530314979,-2.1828675899195695,33.456641898725934,2.0794321270178755,16.0,473.4485920000001
1007,34.03114989092628,-2.388107489901574,33.490436486502425,2.184409694056713,16.0,473.4485920000001
1008,34.06494447870277,-2.0598937192975417,33.524231074278916,1.7792366760714509,16.0,473.4485920000001
1009,34.09873906647926,-1.3116632386236755,33.55802566205541,1.1128975636897283,16.0,473.4485920000001
1010,34.13253365425575,-0.3810000158149684,33.5918202498319,0.47209867525392185,16.0,473.4485920000001
1011,34.16632824203224,0.4528856212411425,33.62561483760839,0.02691698353965324,16.0,473.4485920000001
1012,34.200122829808734,0.9677368097510106,33.65940942538488,-0.23658485741370008,16.0,473.4485920000001
1013,34.233917417585225,1.0752547441112936,33.69320401316137,-0.4633937588778761,16.0,473.4485920000001
1014,34.267712005361716,0.8437620612419588,33.72699860093786,-0.7958974353393824,16.0,473.4485920000001
1015,34.30150659313821,0.45351045077868335,33.76079318871435,-1.2460743787529287,16.0,473.4485920000001
1016,34.3353011809147,0.10117387675127343,33.79458777649084,-1.6556047657138173,16.0,473.4485920000001
1017,34.36909576869119,-0.10028733776695939,33.828382364267334,-1.7735486387892034,16.0,473.4485920000001
1018,34.40289035646768,-0.17050064748213561,33.862176952043825,-1.4096400396588042,16.0,473.4485920000001
1019,34.43668494424417,-0.22817769495147483,33.895971539820316,-0.5712140774612853,16.0,473.4485920000001
1020,34.470479532020654,-0.39269242444745156,33.9297661275968,0.5045301994986628,16.0,473.4485920000001
1021,34.504274119797145,-0.6813145457228752,33.96356071537329,1.4510508967147486,16.0,473.4485920000001
1022,34.538068707573636,-0.9721109888883112,33.99735530314978,1.9515829230350439,16.0,473.4485920000001
1023,34.57186329535013,-1.066088613306029,34.03114989092627,1.8918731917573433,16.0,473.4485920000001
1024,34.60565788312662,-0.8153928601870652,34.06494447870276,1.3976184876325004,16.0,473.4485920000001
1025,34.63945247090311,-0.23149464247435608,34.098739066479254,0.7401068688362359,16.0,473.4485920000001
1026,34.6732470586796,0.505023852152026,34.132533654255745,0.17351507867581606,16.0,473.4485920000001
1027,34.70704164645609,1.140671014630543,34.166328242032236,-0.19603013687363827,16.0,473.4485920000001
1028,34.74083623423258,1.4826604710025728,34.20012282980873,-0.43517969487868413,16.0,473.4485920000001
1029,34.77463082200907,1.4838558942146989,34.23391741758522,-0.6951969617754115,16.0,473.4485920000001
1030,34.80842540978556,1.238260602296338,34.26771200536171,-1.072092361240672,16.0,473.4485920000001
1031,34.842219997562054,0.9062411050986127,34.3015065931382,-1.5061366665179372,16.0,473.4485920000001
1032,34.876014585338545,0.6211417734819682,34.33530118091469,-1.7882107185364509,16.0,473.4485920000001
1033,34.909809173115036,0.42675379382366846,34.36909576869118,-1.6762013135824334,16.0,473.4485920000001
1034,34.94360376089153,0.27183005669335797,34.40289035646767,-1.0548814418628774,16.0,473.4485920000001
1035,34.97739834866802,0.0580921342811641,34.43668494424416,-0.03906444694926492,16.0,473.4485920000001
1036,35.01119293644451,-0.2866976744154874,34.470479532020654,1.0522726177172292,16.0,473.4485920000001
1037,35.044987524221,-0.7500936073124008,34.504274119797145,1.8449656641560932,16.0,473.4485920000001
1038,35.07878211199749,-1.223714452624052,34.538068707573636,2.095725464128829,16.0,473.4485920000001
1039,35.11257669977398,-1.5497299671802178,34.57186329535013,1.8031870381768953,16.0,473.4485920000001
1040,35.14637128755047,-1.6033032700879968,34.60565788312662,1.1800606347514917,16.0,473.4485920000001
1041,35.18016587532696,-1.363503116432626,34.63945247090311,0.5114635242075258,16.0,473.4485920000001
1042,35.213960463103454,-0.9263702159398833,34.6732470586796,-0.0072053827443260545,16.0,473.4485920000001
1043,35.247755050879945,-0.4479748273064612,34.70704164645609,-0.35436383277277517,16.0,473.4485920000001
1044,35.281549638656436,-0.05275638336929577,35.044987524221,2.130973289695785,7.0,207.13375900000003
1045,35.31534422643293,0.23138054794023555,35.07878211199749,2.141576906479309,7.0,207.13375900000003
1046,35.34913881420942,0.4670594183512775,35.11257669977398,1.6927875824351024,7.0,207.13375900000003
1047,35.38293340198591,0.7354066827073272,35.14637128755047,1.0380179083910148,7.0,207.13375900000003
1048,35.4167279897624,1.0485404257599042,35.18016587532696,0.4282655513564353,7.0,207.13375900000003
1049,35.45052257753889,1.3111952704440815,35.213960463103454,-0.012641012152946824,7.0,207.13375900000003
1050,35.48431716531538,1.3688724016969371,35.247755050879945,-0.3201361349511909,7.0,207.13375900000003
1051,35.51811175309187,1.120074121801931,35.51811175309187,0.6439401483894506,0.0,0.0
1052,35.55190634086836,0.6143803878520697,35.55190634086836,1.4774817347988767,0.0,0.0
1053,35.585700928644854,0.056339484356299714,36.63333314971607,1.3348973522718877,-31.0,-917.3066470000001
1054,35.619495516421345,-0.3005575067617984,36.667127737492564,1.4127632561968488,-31.0,-917.3066470000001
1055,35.653290104197836,-0.3040101696173431,36.700922325269055,1.0754630630782063,-31.0,-917.3066470000001
1056,35.68708469197433,0.0025601835276471605,36.734716913045546,0.4931398458151321,-31.0,-917.3066470000001
1057,35.72087927975082,0.40510957911210294,36.76851150082204,-0.0980629886188475,-31.0,-917.3066470000001
1058,35.75467386752731,0.6507892410314878,36.80230608859853,-0.5179111449927751,-31.0,-917.3066470000001
1059,35.7884684553038,0.6026215947467517,36.83610067637502,-0.7173791172529264,-31.0,-917.3066470000001
1060,35.82226304308029,0.3129822577986042,36.86989526415151,-0.7710841670913304,-31.0,-917.3066470000001
1061,35.85605763085678,-0.034062469039865345,36.1602089208452,1.798624282298081,-9.0,-266.314833
1062,35.88985221863327,-0.26454335772818394,36.19400350862169,1.2508923331888187,-9.0,-266.314833
1063,35.923646806409764,-0.33250943993015253,36.22779809639818,0.5976330593375001,-9.0,-266.314833
1064,35.957441394186255,-0.33257786313522003,36.26159268417467,0.064165780005404,-9.0,-266.314833
1065,35.991235981962745,-0.4111060584776343,36.295387271951164,-0.2626612625150204,-9.0,-266.314833
1066,36.025030569739236,-0.6509010175549876,36.329181859727655,-0.44187825998945524,-9.0,-266.314833
1067,36.05882515751573,-1.010895048902252,36.05882515751573,0.8169764687126705,0.0,0.0
1068,36.09261974529222,-1.351104049694909,36.09261974529222,1.6328134229180933,0.0,0.0
1069,36.12641433306871,-1.512627945041708,35.88985221863327,-1.2904323268571019,7.0,207.13375900000003
1070,36.1602089208452,-1.398582939619084,35.923646806409764,-1.610363713115246,7.0,207.13375900000003
1071,36.19400350862169,-1.0199676866158138,35.957441394186255,-1.59249312888536,7.0,207.13375900000003
1072,36.22779809639818,-0.4978951130431221,35.991235981962745,-1.1025866933797512,7.0,207.13375900000003
1073,36.26159268417467,-0.023134052620188802,36.025030569739236,-0.21029892215754264,7.0,207.13375900000003
1074,36.295387271951164,0.22490818751411,36.59953856193958,0.8368200545806356,-9.0,-266.314833
1075,36.329181859727655,0.17856524846933003,36.63333314971607,1.3348973522718877,-9.0,-266.314833
1076,36.362976447504145,-0.05384963607414081,36.667127737492564,1.4127632561968488,-9.0,-266.314833
1077,36.396771035280636,-0.2237592874301203,36.700922325269055,1.0754630630782063,-9.0,-266.314833
1078,36.43056562305713,-0.08912501347887775,36.734716913045546,0.4931398458151321,-9.0,-266.314833
1079,36.46436021083362,0.4075714181025927,36.76851150082204,-0.0980629886188475,-9.0,-266.314833
1080,36.49815479861011,1.0623660465036815,36.80230608859853,-0.5179111449927751,-9.0,-266.314833
1081,36.5319493863866,1.5149289662237597,36.83610067637502,-0.7173791172529264,-9.0,-266.314833
1082,36.56574397416309,1.482802679557758,36.86989526415151,-0.7710841670913304,-9.0,-266.314833
1083,36.59953856193958,0.9614618712173839,36.903689851928,-0.8000539305966536,-9.0,-266.314833
1084,36.63333314971607,0.24240659833887768,36.93748443970449,-0.875404362864021,-9.0,-266.314833
1085,36.667127737492564,-0.26317754677152033,36.97127902748098,-0.9612603056347874,-9.0,-266.314833
1086,36.700922325269055,-0.26910687829995916,37.00507361525747,-0.9319044798597114,-9.0,-266.314833
1087,36.734716913045546,0.22965078138829043,37.038868203033964,-0.6556239514198021,-9.0,-266.314833
1088,36.76851150082204,0.9675490229628989,37.072662790810455,-0.09651771297525366,-9.0,-266.314833
1089,36.80230608859853,1.5580447457474103,34.84221999756206,-1.82715314078849,58.0,1716.2511460000003
1090,36.83610067637502,1.6904730834951154,34.87601458533855,-1.8993353912901203,58.0,1716.2511460000003
1091,36.86989526415151,1.2745518234187176,34.90980917311504,-1.4849784121042193,58.0,1716.2511460000003
1092,36.903689851928,0.4679485848830893,35.24775505087995,-0.3201361349512539,49.0,1449.9363130000002
1093,36.93748443970449,-0.4171338914935316,35.28154963865644,-0.6198030253658621,49.0,1449.9363130000002
1094,36.97127902748098,-1.0727645956048677,35.315344226432934,-1.0063846813075412,49.0,1449.9363130000002
1095,37.00507361525747,-1.3351640681310297,35.315344226432934,-1.0063846813075412,50.0,1479.5268500000002
1096,37.038868203033964,-1.2378577804620527,35.349138814209425,-1.4473616824070197,50.0,1479.5268500000002
1097,37.072662790810455,-0.9605765680399369,35.41672798976241,-1.7605333535991274,49.0,1449.9363130000002
1098,37.106457378586946,-0.7111176271902055,35.4505225775389,-1.279187689853932,49.0,1449.9363130000002
1099,37.14025196636344,-0.6082848112118462,35.72087927975082,0.07178158981914673,42.0,1242.802554
1100,37.17404655413993,-0.6286196850568079,35.75467386752731,-0.198840833707983,42.0,1242.802554
1101,37.20784114191642,-0.6426015341308494,35.7884684553038,-0.34903790473748325,42.0,1242.802554
1102,37.24163572969291,-0.5153500122950346,35.82226304308029,-0.5387013158893368,42.0,1242.802554
1103,37.2754303174694,-0.20928902234717142,35.85605763085678,-0.8687309902030608,42.0,1242.802554
1104,37.30922490524589,0.17509042487369508,35.88985221863327,-1.2904323268571019,42.0,1242.802554
1105,37.34301949302238,0.44647006603914235,35.923646806409764,-1.610363713115246,42.0,1242.802554
1106,37.37681408079887,0.4302912455978192,35.957441394186255,-1.59249312888536,42.0,1242.802554
1107,37.410608668575364,0.07374675617011348,35.991235981962745,-1.1025866933797512,42.0,1242.802554
1108,37.444403256351855,-0.5111543013602957,37.61337619523431,-0.21678542307112306,-5.0,-147.95268500000003
1109,37.478197844128346,-1.0898874887090895,37.6471707830108,0.5680201300002565,-5.0,-147.95268500000003
1110,37.51199243190484,-1.4116800906155222,37.68096537078729,1.2180319084115103,-5.0,-147.95268500000003
1111,37.54578701968133,-1.326971604185185,37.68096537078729,1.2180319084115103,-4.0,-118.36214800000002
1112,37.57958160745782,-0.8580092899529171,37.71475995856378,1.4989181789660957,-4.0,-118.36214800000002
1113,37.61337619523431,-0.18699024891365917,37.74855454634027,1.3346332199791395,-4.0,-118.36214800000002
1114,37.6471707830108,0.432868231067694,37.782349134116764,0.84088687803423,-4.0,-118.36214800000002
1115,37.68096537078729,0.7982800117922026,37.816143721893255,0.25336861509602776,-4.0,-118.36214800000002
1116,37.71475995856378,0.8475041123631809,37.849938309669746,-0.2041067030910671,-4.0,-118.36214800000002
1117,37.748554546340266,0.6777177100508192,37.88373289744623,-0.4334369026604206,-4.0,-118.36214800000002
1118,37.78234913411676,0.48295030277454104,37.91752748522272,-0.49511234789261377,-4.0,-118.36214800000002
1119,37.81614372189325,0.44868762022362174,37.95132207299921,-0.5461922408846719,-4.0,-118.36214800000002
1120,37.84993830966974,0.6597748555993396,36.937484439704484,-0.8754043628640051,27.0,798.9444990000002
1121,37.88373289744623,1.0664878603769474,36.971279027480975,-0.9612603056347693,27.0,798.9444990000002
1122,37.91752748522272,1.5171401807888307,37.2416357296929,1.2202557247477313,20.0,591.8107400000001
1123,37.95132207299921,1.8294201139535204,37.27543031746939,0.6488079511710663,20.0,591.8107400000001
1124,37.9851166607757,1.862546328960027,37.309224905245884,0.12080519534125467,20.0,591.8107400000001
1125,38.01891124855219,1.5685374582084302,37.376814080798866,-0.4340100771340809,19.0,562.2202030000001
1126,38.052705836328684,1.0159362379163046,37.376814080798866,-0.4340100771340809,20.0,591.8107400000001
1127,38.086500424105175,0.3758197833941341,37.44440325635185,-0.7508289935639493,19.0,562.2202030000001
1128,38.120295011881666,-0.14183966101873705,37.47819784412834,-0.9923761995077713,19.0,562.2202030000001
1129,38.15408959965816,-0.3867456938754384,37.51199243190483,-1.195115860838162,19.0,562.2202030000001
1130,38.18788418743465,-0.34890763354527365,39.43828393516481,0.8071776045753906,-37.0,-1094.8498690000001
1131,38.22167877521114,-0.16654531145597462,39.50587311071779,-0.04482946486379305,-38.0,-1124.4404060000002
1132,38.25547336298763,-0.05246997290943084,39.539667698494284,-0.22615790222170593,-38.0,-1124.4404060000002
1133,38.28926795076412,-0.18084564960372632,39.573462286270775,-0.4174986644118049,-38.0,-1124.4404060000002
1134,38.32306253854061,-0.5939773793930385,39.607256874047266,-0.7379470322931566,-38.0,-1124.4404060000002
1135,38.3568571263171,-1.1772386189583275,39.64105146182376,-1.1685933533115347,-38.0,-1124.4404060000002
1136,38.39065171409359,-1.7198941772959075,39.67484604960025,-1.536267724271347,-38.0,-1124.4404060000002
1137,38.424446301870084,-2.0323206757586356,39.67484604960025,-1.536267724271347,-37.0,-1094.8498690000001
1138,38.458240889646575,-2.050124784706942,39.70864063737674,-1.6005058816285997,-37.0,-1094.8498690000001
1139,38.492035477423066,-1.8606160777659246,39.74243522515323,-1.1987622182361533,-37.0,-1094.8498690000001
1140,38.52583006519956,-1.636977429291819,39.77622981292972,-0.36489327795311255,-37.0,-1094.8498690000001
1141,38.55962465297605,-1.5205911772866572,39.81002440070621,0.656055608105157,-37.0,-1094.8498690000001
1142,38.59341924075254,-1.5209754643485873,39.8438189884827,1.5150145636504333,-37.0,-1094.8498690000001
1143,38.62721382852903,-1.4978866263192558,39.87761357625919,1.9296384866210687,-37.0,-1094.8498690000001
1144,38.66100841630552,-1.2480975784148722,39.911408164035684,1.8179229565875237,-37.0,-1094.8498690000001
1145,38.69480300408201,-0.6496183477744407,39.945202751812175,1.3176410050990135,-37.0,-1094.8498690000001
1146,38.7285975918585,0.23578945999639705,39.978997339588666,0.6873967172999867,-37.0,-1094.8498690000001
1147,38.76239217963499,1.1800640132417455,38.863775942964466,1.0991905774342265,-3.0,-88.77161100000001
1148,38.796186767411484,1.9141173175369814,38.89757053074096,0.5103449942354824,-3.0,-88.77161100000001
1149,38.829981355187975,2.267273999532803,38.93136511851745,0.032334971759610885,-3.0,-88.77161100000001
1150,38.863775942964466,2.2302347591759224,38.96515970629394,-0.2359119304572093,-3.0,-88.77161100000001
1151,38.89757053074096,1.9255047262418965,38.99895429407043,-0.3655919707557975,-3.0,-88.77161100000001
1152,38.93136511851745,1.5321954084194291,39.03274888184692,-0.5207316265597318,-3.0,-88.77161100000001
1153,38.96515970629394,1.2123588723427625,39.06654346962341,-0.8259656784382318,-3.0,-88.77161100000001
1154,38.99895429407043,1.0554372614079974,39.1003380573999,-1.2605164222430019,-3.0,-88.77161100000001
