frame_idx,t_rppg,rppg_n,t_gt_pair,ppg_n_pair,lag_samples,lag_frames
0,0.0,-0.06483596995845924,0.9192429101773366,1.3472500743423597,-27.0,-793.043919
1,0.03404603371027173,-0.1725112562124774,0.9532889438876083,0.8911670729310394,-27.0,-793.043919
2,0.06809206742054345,-0.1402308696041432,0.98733497759788,0.3173104038565733,-27.0,-793.043919
3,0.10213810113081517,0.1264240522119448,1.0213810113081518,-0.14190413101338797,-27.0,-793.043919
4,0.1361841348410869,0.6380038313345704,1.0554270450184235,-0.36219557297368493,-27.0,-793.043919
5,0.17023016855135864,1.3190363215151923,1.0894730787286953,-0.36813383909177566,-27.0,-793.043919
6,0.20427620226163035,2.0381274182252676,1.123519112438967,-0.2947826966624745,-27.0,-793.043919
7,0.23832223597190208,2.6506871912772407,1.1575651461492387,-0.2979229594758572,-27.0,-793.043919
8,0.2723682696821738,3.029038425696649,1.1916111798595104,-0.4607839937905422,-27.0,-793.043919
9,0.3064143033924455,3.0733069039128096,1.225657213569782,-0.7421427075906231,-27.0,-793.043919
10,0.3404603371027173,2.719810483422318,1.2597032472800538,-0.9901488532155973,-27.0,-793.043919
11,0.374506370812989,1.9652370879022114,1.2937492809903257,-1.0170375363126112,-27.0,-793.043919
12,0.4085524045232607,0.9000425092558636,1.3277953147005972,-0.701112573016083,-27.0,-793.043919
13,0.44259843823353245,-0.28369894585765587,1.3618413484108691,-0.0651481188176588,-27.0,-793.043919
14,0.47664447194380416,-1.3432073315386786,1.3958873821211408,0.7137641548661422,-27.0,-793.043919
15,0.5106905056540759,-2.086130663679285,1.4299334158314125,1.3754794487221242,-27.0,-793.043919
16,0.5447365393643476,-2.4634181916617015,1.4639794495416842,1.6964171085236293,-27.0,-793.043919
17,0.5787825730746193,-2.5855234650406618,1.498025483251956,1.594041575406847,-27.0,-793.043919
18,0.612828606784891,-2.6382221488589295,1.5320715169622277,1.15920721669369,-27.0,-793.043919
19,0.6468746404951627,-2.7426585021784695,1.5661175506724994,0.60104529101912,-27.0,-793.043919
20,0.6809206742054346,-2.8503569907526662,1.6001635843827713,0.13860285577437648,-27.0,-793.043919
21,0.7149667079157063,-2.7541577205409085,1.6342096180930428,-0.10088338802050116,-27.0,-793.043919
22,0.749012741625978,-2.2242845185178,1.6682556518033147,-0.1280875749388989,-27.0,-793.043919
23,0.7830587753362497,-1.1857386727373955,1.7023016855135862,-0.06787538424773502,-27.0,-793.043919
24,0.8171048090465214,0.1873207188578526,1.736347719223858,-0.08582677335275667,-27.0,-793.043919
25,0.8511508427567931,1.5322323153155728,1.7703937529341296,-0.3019404923395662,-27.0,-793.043919
26,0.8851968764670649,2.4792868903159593,1.8044397866444015,-0.7270404250670358,-27.0,-793.043919
27,0.9192429101773366,2.8400662768291793,1.8384858203546732,-1.245936939081529,-27.0,-793.043919
28,0.9532889438876083,2.687603731151271,1.872531854064945,-1.6561398968286574,-27.0,-793.043919
29,0.98733497759788,2.285601377503019,1.9065778877752166,-1.7522462567800132,-27.0,-793.043919
30,1.0213810113081518,1.9206753496020772,1.9406239214854883,-1.4245993611299013,-27.0,-793.043919
31,1.0554270450184235,1.7483840284553425,1.9746699551957603,-0.7254056706342009,-27.0,-793.043919
32,1.0894730787286953,1.7423254488285078,2.0087159889060318,0.13825903100209455,-27.0,-793.043919
33,1.123519112438967,1.7567747665635696,2.0427620226163037,0.8904506294163488,-27.0,-793.043919
34,1.1575651461492387,1.641098990618003,2.076808056326575,1.3103529237232088,-27.0,-793.043919
35,1.1916111798595104,1.3283512887033995,2.110854090036847,1.3269027482717242,-27.0,-793.043919
36,1.225657213569782,0.8579356107570945,2.1449001237471186,1.0333093836823106,-27.0,-793.043919
37,1.2597032472800538,0.3410826902606334,2.1789461574573905,0.6201790045712086,-27.0,-793.043919
38,1.2937492809903255,-0.09815801022226382,2.212992191167662,0.27255017729928877,-27.0,-793.043919
39,1.3277953147005972,-0.37719552296101405,2.247038224877934,0.08918229763145502,-27.0,-793.043919
40,1.3618413484108691,-0.4875309574187731,2.281084258588206,0.05923790175698464,-27.0,-793.043919
41,1.3958873821211408,-0.4980805929875258,2.3151302922984773,0.09391298007599788,-27.0,-793.043919
42,1.4299334158314125,-0.5280940893648641,2.3491763260087493,0.08435410442428895,-27.0,-793.043919
43,1.4639794495416842,-0.6949236649689927,2.3832223597190207,-0.04574211820042201,-27.0,-793.043919
44,1.498025483251956,-1.0517912991600085,2.4172683934292927,-0.31023233010164,-27.0,-793.043919
45,1.5320715169622277,-1.5461253002095792,2.451314427139564,-0.6547989341315338,-27.0,-793.043919
46,1.5661175506724994,-2.034826881157654,2.485360460849836,-0.9706210372480523,-27.0,-793.043919
47,1.600163584382771,-2.36489174430273,2.5194064945601076,-1.1251819774651457,-27.0,-793.043919
48,1.6342096180930428,-2.4743495379277345,2.5534525282703795,-1.0088778687216462,-27.0,-793.043919
49,1.6682556518033145,-2.439094720045211,2.587498561980651,-0.5873602911732234,-27.0,-793.043919
50,1.7023016855135862,-2.4227270777451655,2.621544595690923,0.06417313921419343,-27.0,-793.043919
51,1.7363477192238579,-2.5569354604608803,2.6555906294011944,0.7713819555269946,-27.0,-793.043919
52,1.7703937529341298,-2.8310153642212423,2.6896366631114663,1.3231287773058342,-27.0,-793.043919
53,1.8044397866444015,-3.063804094886275,2.7236826968217382,1.5599320388702091,-27.0,-793.043919
54,1.8384858203546732,-2.981520628746357,2.7577287305320097,1.4412203826892704,-27.0,-793.043919
55,1.872531854064945,-2.3667729004511475,2.7917747642422817,1.0538102775936058,-27.0,-793.043919
56,1.9065778877752166,-1.2010866742489552,2.825820797952553,0.5596568314830406,-27.0,-793.043919
57,1.9406239214854883,0.287900050667899,2.859866831662825,0.11649974255240961,-27.0,-793.043919
58,1.97466995519576,1.7205040119615653,2.8939128653730966,-0.1838630259307082,-27.0,-793.043919
59,2.0087159889060318,2.755939972496067,2.9279588990833685,-0.33265935828680093,-27.0,-793.043919
60,2.0427620226163037,3.261834309046657,2.9620049327936404,-0.3801571964946096,-27.0,-793.043919
61,2.076808056326575,3.3540607736608883,2.996050966503912,-0.39567449748363537,-27.0,-793.043919
62,2.110854090036847,3.2896482909309332,3.030097000214184,-0.4371054427462427,-27.0,-793.043919
63,2.1449001237471186,3.2937986363876597,3.0641430339244553,-0.539413033101979,-27.0,-793.043919
64,2.1789461574573905,3.4333654019617663,3.0641430339244553,-0.539413033101979,-26.0,-763.671922
65,2.212992191167662,3.6023473290424035,3.098189067634727,-0.7140561678153408,-26.0,-763.671922
66,2.247038224877934,3.609307146976084,3.1322351013449987,-0.9460570630220984,-26.0,-763.671922
67,2.2810842585882054,3.3053675934286044,3.16628113505527,-1.1850984795401711,-26.0,-763.671922
68,2.3151302922984773,2.6812861221471285,3.200327168765542,-1.342165217587387,-26.0,-763.671922
69,2.3491763260087493,1.883546145076559,3.234373202475814,-1.3089975913279137,-26.0,-763.671922
70,2.3832223597190207,1.1404135969004348,3.2684192361860855,-1.0051862547025618,-26.0,-763.671922
71,2.4172683934292927,0.6360803338456318,3.3024652698963575,-0.433199852031614,-26.0,-763.671922
72,2.451314427139564,0.4022559327141783,3.711017674419618,0.23310869928426156,-37.0,-1086.763889
73,2.485360460849836,0.29147680826656563,3.74506370812989,0.15272362341135634,-37.0,-1086.763889
74,2.5194064945601076,0.05430317836139705,3.7791097418401614,0.016505362400453374,-37.0,-1086.763889
75,2.5534525282703795,-0.5155687480931813,3.8131557755504333,-0.14827479690325557,-37.0,-1086.763889
76,2.587498561980651,-1.4478882811390594,3.8472018092607048,-0.31218178852334794,-37.0,-1086.763889
77,2.621544595690923,-2.554942671336246,3.8472018092607048,-0.31218178852334794,-36.0,-1057.391892
78,2.6555906294011944,-3.5136801354311076,3.8812478429709767,-0.4546244578805332,-36.0,-1057.391892
79,2.6896366631114663,-4.025935252548725,3.94933991039152,-0.6339045570299461,-37.0,-1086.763889
80,2.7236826968217382,-3.963319115559626,4.051478011522335,-0.6510621166754809,-39.0,-1145.507883
81,2.7577287305320097,-3.417287231818956,4.085524045232607,-0.6818012106447366,-39.0,-1145.507883
82,2.7917747642422817,-2.6373341941098936,4.119570078942879,-0.7867615960042404,-39.0,-1145.507883
83,2.825820797952553,-1.903288493561882,4.15361611265315,-0.9609441992026108,-39.0,-1145.507883
84,2.859866831662825,-1.4036259337957346,4.187662146363422,-1.1331547078593955,-39.0,-1145.507883
85,2.8939128653730966,-1.1756228602850263,4.698352652017498,0.09303574442706902,-53.0,-1556.715841
86,2.9279588990833685,-1.1234801699970456,4.73239868572777,-0.009808280365686648,-53.0,-1556.715841
87,2.96200493279364,-1.091653531841811,4.7664447194380415,-0.18219120399153702,-53.0,-1556.715841
88,2.996050966503912,-0.9506049470759702,4.800490753148313,-0.3861891720208446,-53.0,-1556.715841
89,3.0300970002141834,-0.6553074974229808,4.800490753148313,-0.3861891720208446,-52.0,-1527.343844
90,3.0641430339244553,-0.25485057077213324,4.834536786858585,-0.5685281746773767,-52.0,-1527.343844
91,3.0981890676347272,0.145679654933893,4.868582820568857,-0.6866740310654557,-52.0,-1527.343844
92,3.1322351013449987,0.44835016570182923,4.902628854279128,-0.7274342522713083,-52.0,-1527.343844
93,3.1662811350552706,0.6153989200098336,4.9366748879894,-0.7138370309101005,-52.0,-1527.343844
94,3.200327168765542,0.6830664491727286,4.970720921699672,-0.6978252442262621,-52.0,-1527.343844
95,3.234373202475814,0.7310449995401026,5.004766955409944,-0.7379160142270926,-52.0,-1527.343844
96,3.2684192361860855,0.8288488341268258,5.038812989120215,-0.8660636298646928,-52.0,-1527.343844
97,3.3024652698963575,0.9929848171369203,5.072859022830487,-1.056620060059429,-52.0,-1527.343844
98,3.336511303606629,1.1815364264458172,5.106905056540759,-1.2168623911557679,-52.0,-1527.343844
99,3.370557337316901,1.3299947458029162,5.140951090251031,-1.2147290916631628,-52.0,-1527.343844
100,3.4046033710271724,1.4045383681673298,5.174997123961302,-0.9412803601073846,-52.0,-1527.343844
101,3.4386494047374443,1.4334087760771055,5.209043157671574,-0.3801056287990115,-52.0,-1527.343844
102,3.4726954384477158,1.4892188778594848,5.243089191381846,0.35885040155083053,-52.0,-1527.343844
103,3.5067414721579877,1.631082293943144,5.277135225092118,1.0711406010598827,-52.0,-1527.343844
104,3.5407875058682596,1.8483694958226902,5.277135225092118,1.0711406010598827,-51.0,-1497.971847
105,3.574833539578531,2.050449195359828,5.311181258802389,1.5471377461382572,-51.0,-1497.971847
106,3.608879573288803,2.1151125329699765,5.345227292512661,1.6710510313019715,-51.0,-1497.971847
107,3.6429256069990745,1.9648427961429662,5.345227292512661,1.6710510313019715,-50.0,-1468.59985
108,3.6769716407093465,1.617302007706277,5.379273326222933,1.4717117177901502,-50.0,-1468.59985
109,3.711017674419618,1.173582257574098,5.413319359933205,1.0963312311517546,-50.0,-1468.59985
110,3.74506370812989,0.7535671440815576,5.4473653936434765,0.7262246164319289,-50.0,-1468.59985
111,3.7791097418401614,0.42594655136853093,5.5154574610640195,0.3969921259467258,-51.0,-1497.971847
112,3.8131557755504333,0.1798571156078766,5.549503494774291,0.3891265559072373,-51.0,-1497.971847
113,3.8472018092607048,-0.050709185628580226,2.4513144271395637,-0.6547989341315292,41.0,1204.251877
114,3.8812478429709767,-0.33515964040592494,2.4853604608498356,-0.9706210372480482,41.0,1204.251877
115,3.9152938766812486,-0.7015312131676563,2.5194064945601076,-1.1251819774651457,41.0,1204.251877
116,3.94933991039152,-1.1191386179437561,2.5194064945601076,-1.1251819774651457,42.0,1233.6238740000001
117,3.983385944101792,-1.5136065120564988,2.5534525282703795,-1.0088778687216462,42.0,1233.6238740000001
118,4.0174319778120635,-1.8071394198714665,2.587498561980651,-0.5873602911732234,42.0,1233.6238740000001
119,4.051478011522335,-1.9626355980643841,2.621544595690923,0.06417313921419343,42.0,1233.6238740000001
120,4.085524045232607,-2.0030851811364974,2.655590629401195,0.7713819555270018,42.0,1233.6238740000001
121,4.119570078942878,-1.991883693286142,2.689636663111466,1.323128777305827,42.0,1233.6238740000001
122,4.15361611265315,-1.9880202215875187,2.723682696821738,1.559932038870206,42.0,1233.6238740000001
123,4.187662146363422,-2.007841716644853,2.7577287305320097,1.4412203826892704,42.0,1233.6238740000001
124,4.221708180073694,-2.0170474776606744,2.7917747642422817,1.0538102775936058,42.0,1233.6238740000001
125,4.255754213783965,-1.9531088603103108,2.8258207979525527,0.559656831483047,42.0,1233.6238740000001
126,4.289800247494237,-1.761668907399959,2.893912865373096,-0.18386302593070428,41.0,1204.251877
127,4.323846281204509,-1.4283287531689337,2.927958899083368,-0.332659358286799,41.0,1204.251877
128,4.357892314914781,-0.9914949950433726,2.96200493279364,-0.3801571964946094,41.0,1204.251877
129,4.391938348625053,-0.5289241201382542,2.9620049327936404,-0.3801571964946096,42.0,1233.6238740000001
130,4.425984382335324,-0.12374657307916574,3.030097000214183,-0.4371054427462408,41.0,1204.251877
131,4.460030416045596,0.16962414600741305,3.064143033924455,-0.5394130331019776,41.0,1204.251877
132,4.494076449755868,0.33864748841132025,3.098189067634727,-0.7140561678153408,41.0,1204.251877
133,4.52812248346614,0.40266542392899535,3.1322351013449987,-0.9460570630220984,41.0,1204.251877
134,4.562168517176411,0.39755751277124474,3.1662811350552698,-1.185098479540168,41.0,1204.251877
135,4.596214550886683,0.37214874893631966,3.2003271687655417,-1.342165217587385,41.0,1204.251877
136,4.630260584596955,0.3934659215125269,4.187662146363422,-1.1331547078593955,13.0,381.835961
137,4.664306618307227,0.5404591538516725,4.221708180073694,-1.1748364049120035,13.0,381.835961
138,4.6983526520174985,0.8712850115874784,3.3365113036066294,0.2953287017684957,40.0,1174.87988
139,4.73239868572777,1.3768035767238478,3.3705573373169004,0.9894531742622878,40.0,1174.87988
140,4.7664447194380415,1.9569498082730865,3.4046033710271724,1.4577598868183868,40.0,1174.87988
141,4.800490753148313,2.4501652443464375,3.4386494047374443,1.5939098868553137,40.0,1174.87988
142,4.834536786858585,2.7091105776058324,3.4386494047374443,1.5939098868553137,41.0,1204.251877
143,4.868582820568856,2.676566882781857,3.5067414721579873,1.0609037082550508,40.0,1174.87988
144,4.902628854279128,2.4076249059108368,3.540787505868259,0.680818830440532,40.0,1174.87988
145,4.9366748879894,2.0202223318351558,3.574833539578531,0.40216103920000607,40.0,1174.87988
146,4.970720921699672,1.6113849490607328,3.608879573288803,0.26703446355279825,40.0,1174.87988
147,5.004766955409943,1.2055921832818162,3.642925606999074,0.24120634115463976,40.0,1174.87988
148,5.038812989120215,0.7763071261984555,3.676971640709346,0.25201381554665825,40.0,1174.87988
149,5.072859022830487,0.318227913936213,3.711017674419618,0.23310869928426156,40.0,1174.87988
150,5.106905056540759,-0.10098336070191376,3.74506370812989,0.15272362341135634,40.0,1174.87988
151,5.140951090251031,-0.3669488227599289,3.779109741840162,0.016505362400451223,40.0,1174.87988
152,5.174997123961302,-0.40968525333138356,3.813155775550433,-0.1482747969032534,40.0,1174.87988
153,5.209043157671574,-0.28231439040892947,3.8472018092607048,-0.31218178852334794,40.0,1174.87988
154,5.243089191381846,-0.15374117391483463,4.800490753148313,-0.3861891720208446,13.0,381.835961
155,5.277135225092118,-0.21141977095459286,4.834536786858585,-0.5685281746773767,13.0,381.835961
156,5.311181258802389,-0.5443437442944518,4.868582820568856,-0.6866740310654545,13.0,381.835961
157,5.345227292512661,-1.0916347560437518,4.902628854279128,-0.7274342522713083,13.0,381.835961
158,5.379273326222933,-1.6893323992563933,4.9366748879894,-0.7138370309101005,13.0,381.835961
159,5.413319359933205,-2.174739657867425,4.970720921699672,-0.6978252442262621,13.0,381.835961
160,5.4473653936434765,-2.472609647307573,5.004766955409944,-0.7379160142270926,13.0,381.835961
161,5.4814114273537475,-2.6111788687807063,5.038812989120215,-0.8660636298646928,13.0,381.835961
162,5.5154574610640195,-2.6707362111308655,5.072859022830487,-1.056620060059429,13.0,381.835961
163,5.549503494774291,-2.707896453200114,5.106905056540759,-1.2168623911557679,13.0,381.835961
164,5.583549528484563,-2.7024228610230185,5.140951090251031,-1.2147290916631628,13.0,381.835961
165,5.617595562194834,-2.5530482316300187,5.174997123961302,-0.9412803601073846,13.0,381.835961
166,5.651641595905106,-2.1262410051211567,5.209043157671574,-0.3801056287990115,13.0,381.835961
167,5.685687629615378,-1.3401659077061072,5.243089191381846,0.35885040155083053,13.0,381.835961
168,5.71973366332565,-0.2415447725816302,5.277135225092118,1.0711406010598827,13.0,381.835961
169,5.753779697035921,0.9768161727510002,5.311181258802389,1.5471377461382572,13.0,381.835961
170,5.787825730746193,2.042179158810553,5.345227292512661,1.6710510313019715,13.0,381.835961
171,5.821871764456465,2.720768943208964,5.379273326222933,1.4717117177901502,13.0,381.835961
172,5.855917798166737,2.9192551849052837,5.413319359933205,1.0963312311517546,13.0,381.835961
173,5.889963831877009,2.709287606558963,5.4473653936434765,0.7262246164319289,13.0,381.835961
174,5.92400986558728,2.2675066172345533,5.4814114273537475,0.48619825348779394,13.0,381.835961
175,5.958055899297552,1.7759603112907183,5.5154574610640195,0.3969921259467258,13.0,381.835961
176,5.992101933007824,1.3441556570616657,5.549503494774291,0.3891265559072373,13.0,381.835961
177,6.026147966718096,0.988920431626411,5.583549528484563,0.3601978355075867,13.0,381.835961
178,6.060194000428367,0.6666938255385043,5.617595562194834,0.2379543942026587,13.0,381.835961
179,6.094240034138639,0.325718052370181,5.651641595905106,0.015687436911758213,13.0,381.835961
180,6.128286067848911,-0.05484690611735144,5.651641595905106,0.015687436911758213,14.0,411.207958
181,6.1623321015591825,-0.4548028255036575,6.264470202689997,1.0126609077736073,-3.0,-88.11599100000001
182,6.1963781352694545,-0.8277310793784938,6.298516236400269,0.5692641787045276,-3.0,-88.11599100000001
183,6.2304241689797255,-1.1236831274332104,6.298516236400269,0.5692641787045276,-2.0,-58.743994
184,6.264470202689997,-1.303542117009981,5.787825730746193,-0.6892491133111405,14.0,411.207958
185,6.298516236400269,-1.3429121555569437,5.821871764456465,-0.6868920671259612,14.0,411.207958
186,6.332562270110541,-1.2357253394114922,5.855917798166737,-0.7024041391024917,14.0,411.207958
187,6.366608303820812,-1.0028966303465099,5.889963831877008,-0.7918196335517688,14.0,411.207958
188,6.400654337531084,-0.6950627591464524,6.809206742054345,-0.9693175682779366,-12.0,-352.46396400000003
189,6.434700371241356,-0.3735822036467387,6.843252775764617,-1.0332777482791533,-12.0,-352.46396400000003
190,6.468746404951628,-0.07237550263158189,6.877298809474889,-0.8908170869908155,-12.0,-352.46396400000003
191,6.502792438661899,0.23166204908638083,6.91134484318516,-0.4630311963119275,-12.0,-352.46396400000003
192,6.536838472372171,0.6090607470363882,6.9453908768954316,0.21292656872680887,-12.0,-352.46396400000003
193,6.570884506082443,1.1260165193109937,6.9794369106057035,0.974520834644816,-12.0,-352.46396400000003
194,6.604930539792715,1.7815520504964188,7.013482944315975,1.594554293842598,-12.0,-352.46396400000003
195,6.638976573502987,2.474495102288799,7.047528978026247,1.8841921856902883,-12.0,-352.46396400000003
196,6.673022607213258,3.021799142142875,7.081575011736518,1.7809218034088043,-12.0,-352.46396400000003
197,6.70706864092353,3.221235413675691,7.11562104544679,1.371571725120821,-12.0,-352.46396400000003
198,6.741114674633802,2.9317256357061092,8.000817921913855,0.9770912383003743,-37.0,-1086.763889
199,6.775160708344074,2.136985315896918,8.034863955624127,0.5143176465981614,-37.0,-1086.763889
200,6.809206742054345,0.9634922533608395,8.068909989334399,0.2507237287203637,-37.0,-1086.763889
201,6.843252775764617,-0.3564613900051549,8.10295602304467,0.18901496541177568,-37.0,-1086.763889
202,6.877298809474889,-1.5606881668186185,8.10295602304467,0.18901496541177568,-36.0,-1057.391892
203,6.9113448431851605,-2.4404136240639884,8.137002056754943,0.2314201238642657,-36.0,-1057.391892
204,6.9453908768954316,-2.898672355946451,8.171048090465213,0.2523545957952181,-36.0,-1057.391892
205,6.9794369106057035,-2.962587471617611,8.205094124175485,0.16936364842542487,-36.0,-1057.391892
206,7.013482944315975,-2.748050093931388,8.239140157885757,-0.023188123055602666,-36.0,-1057.391892
207,7.047528978026247,-2.396798850163933,8.273186191596029,-0.2674302999211547,-36.0,-1057.391892
208,7.081575011736519,-2.017606025721309,8.3072322253063,-0.4867933083519525,-36.0,-1057.391892
209,7.11562104544679,-1.6582292040957702,8.341278259016573,-0.6339481780026066,-36.0,-1057.391892
210,7.149667079157062,-1.3155540296133044,8.375324292726845,-0.7159738393453016,-36.0,-1057.391892
211,7.183713112867334,-0.9693679086202673,8.409370326437116,-0.7842650865515757,-36.0,-1057.391892
212,7.217759146577606,-0.6145659315320677,8.443416360147388,-0.894421459064579,-36.0,-1057.391892
213,7.251805180287877,-0.27274789777631225,8.477462393857659,-1.057279878873008,-36.0,-1057.391892
214,7.285851213998149,0.019705617188744015,8.51150842756793,-1.2102921369550699,-36.0,-1057.391892
215,7.319897247708421,0.23543812391546612,8.545554461278202,-1.232542135546137,-36.0,-1057.391892
216,7.353943281418693,0.3754504794113729,8.579600494988474,-1.004973103640571,-36.0,-1057.391892
217,7.387989315128965,0.4730114100936112,8.613646528698746,-0.4879482320855161,-36.0,-1057.391892
218,7.422035348839236,0.5802260386882285,8.647692562409018,0.2306155095665081,-36.0,-1057.391892
219,7.456081382549508,0.7423323196101579,8.68173859611929,0.9538361684654195,-36.0,-1057.391892
220,7.49012741625978,0.9694142294773039,8.749830663539834,1.6086551516704855,-37.0,-1086.763889
221,7.524173449970052,1.2187185097495432,9.26052116919391,-0.9307121818398345,-51.0,-1497.971847
222,7.558219483680323,1.4004044994313491,9.294567202904181,-1.07350302774615,-51.0,-1497.971847
223,7.592265517390595,1.410626452619686,9.328613236614453,-1.1437549482298792,-51.0,-1497.971847
224,7.626311551100867,1.1807237026155362,8.579600494988474,-1.004973103640571,-28.0,-822.415916
225,7.6603575848111385,0.7204682220864003,8.613646528698746,-0.4879482320855161,-28.0,-822.415916
226,7.6944036185214095,0.13344126724938685,8.647692562409018,0.2306155095665081,-28.0,-822.415916
227,7.7284496522316815,-0.4085819516739944,8.68173859611929,0.9538361684654195,-28.0,-822.415916
228,7.762495685941953,-0.7305426311526529,8.715784629829562,1.4601533984854431,-28.0,-822.415916
229,7.796541719652225,-0.7360117529016396,8.749830663539834,1.6086551516704855,-28.0,-822.415916
230,7.830587753362497,-0.4640510875181473,8.783876697250106,1.4041143467814803,-28.0,-822.415916
231,7.864633787072768,-0.07757713312148223,8.817922730960376,0.9846433772027098,-28.0,-822.415916
232,7.89867982078304,0.22708792301070205,8.851968764670648,0.542883810664319,-28.0,-822.415916
233,7.932725854493312,0.34254650001341286,8.88601479838092,0.229629668704101,-28.0,-822.415916
234,7.966771888203584,0.32049256895315426,8.920060832091192,0.09318725678419747,-28.0,-822.415916
235,8.000817921913855,0.3305597814656488,8.954106865801464,0.0806203400923083,-28.0,-822.415916
236,8.034863955624127,0.5269013672081339,8.988152899511736,0.08963005762743768,-28.0,-822.415916
237,8.068909989334399,0.9142384175803836,9.022198933222008,0.0349939465358996,-28.0,-822.415916
238,8.10295602304467,1.3144833820755888,9.05624496693228,-0.10805869400917487,-28.0,-822.415916
239,8.137002056754943,1.4693098901377248,9.090291000642551,-0.303085370864916,-28.0,-822.415916
240,8.171048090465215,1.2143425992630703,9.124337034352823,-0.4882528564647887,-28.0,-822.415916
241,8.205094124175487,0.5996451952157205,9.158383068063095,-0.6228610202448748,-28.0,-822.415916
242,8.239140157885757,-0.13505783388832807,9.192429101773365,-0.7138954444838999,-28.0,-822.415916
243,8.273186191596029,-0.7116943482947258,9.226475135483637,-0.8045626682007071,-28.0,-822.415916
244,8.3072322253063,-0.9781975150423158,9.26052116919391,-0.9307121818398345,-28.0,-822.415916
245,8.341278259016573,-0.973379606942345,9.294567202904181,-1.07350302774615,-28.0,-822.415916
246,8.375324292726845,-0.8650790155650769,9.362659270324725,-1.0178593857107674,-29.0,-851.787913
247,8.409370326437116,-0.8238152398077324,9.396705304034997,-0.6125682595696859,-29.0,-851.787913
248,8.443416360147388,-0.9230383714559175,9.430751337745269,0.0446368605027804,-29.0,-851.787913
249,8.47746239385766,-1.1198151853064777,9.464797371455541,0.7987693212894112,-29.0,-851.787913
250,8.51150842756793,-1.3059988088458485,9.498843405165811,1.4248260524597027,-29.0,-851.787913
251,8.545554461278202,-1.3783586909421,9.532889438876083,1.7326555411739288,-29.0,-851.787913
252,8.579600494988474,-1.2805888954722668,9.566935472586355,1.6587653288380109,-29.0,-851.787913
253,8.613646528698746,-1.0060190327911191,9.600981506296627,1.2907646300979845,-29.0,-851.787913
254,8.647692562409018,-0.58231728496331,9.635027540006899,0.8125055242984952,-29.0,-851.787913
255,8.68173859611929,-0.06293202260959169,9.635027540006899,0.8125055242984952,-28.0,-822.415916
256,8.715784629829562,0.47296546047897287,9.66907357371717,0.40626412834053566,-28.0,-822.415916
257,8.749830663539834,0.9305993542382648,7.830587753362497,0.7688830379764746,27.0,793.043919
258,8.783876697250106,1.229385717577572,7.864633787072769,1.506155223098556,27.0,793.043919
259,8.817922730960376,1.3341979700378506,7.898679820783039,1.9108359308335534,27.0,793.043919
260,8.851968764670648,1.260733892198588,7.966771888203583,1.5069536107432753,26.0,763.671922
261,8.88601479838092,1.0519843777855493,8.000817921913855,0.9770912383003743,26.0,763.671922
262,8.920060832091192,0.7518395152070675,8.034863955624127,0.5143176465981614,26.0,763.671922
263,8.954106865801464,0.40054062944861824,8.068909989334399,0.2507237287203637,26.0,763.671922
264,8.988152899511736,0.04788342406640947,8.10295602304467,0.18901496541177568,26.0,763.671922
265,9.022198933222008,-0.24154304827364517,8.137002056754943,0.2314201238642657,26.0,763.671922
266,9.05624496693228,-0.40792135012594893,8.171048090465215,0.2523545957952192,26.0,763.671922
267,9.090291000642551,-0.42975073796860036,8.205094124175487,0.16936364842542054,26.0,763.671922
268,9.124337034352822,-0.34309937618117675,8.239140157885757,-0.023188123055602666,26.0,763.671922
269,9.158383068063094,-0.2269124706445637,8.273186191596029,-0.2674302999211547,26.0,763.671922
270,9.192429101773365,-0.16068357314470366,8.715784629829562,1.4601533984854431,14.0,411.207958
271,9.226475135483637,-0.18222286213468725,8.749830663539834,1.6086551516704855,14.0,411.207958
272,9.26052116919391,-0.2732264251737895,8.783876697250106,1.4041143467814803,14.0,411.207958
273,9.294567202904181,-0.3787585123545625,8.817922730960378,0.9846433772026867,14.0,411.207958
274,9.328613236614453,-0.4419536655787105,8.85196876467065,0.5428838106643027,14.0,411.207958
275,9.362659270324725,-0.4292252072127162,8.886014798380922,0.2296296687040939,14.0,411.207958
276,9.396705304034997,-0.33600183713009835,8.920060832091194,0.09318725678419681,14.0,411.207958
277,9.430751337745267,-0.1791364785679876,8.954106865801464,0.0806203400923083,14.0,411.207958
278,9.46479737145554,0.01460639542563096,8.988152899511736,0.08963005762743768,14.0,411.207958
279,9.498843405165811,0.21881092536622868,8.988152899511736,0.08963005762743768,15.0,440.579955
280,9.532889438876083,0.41320461785494983,9.430751337745267,0.04463686050274106,3.0,88.11599100000001
281,9.566935472586355,0.5822625741450752,9.46479737145554,0.7987693212893786,3.0,88.11599100000001
282,9.600981506296627,0.7083179816647218,9.498843405165811,1.4248260524597027,3.0,88.11599100000001
283,9.635027540006899,0.7672074420553432,9.532889438876083,1.7326555411739288,3.0,88.11599100000001
284,9.66907357371717,0.7343921367920951,10.384040281632878,1.3275760524333025,-21.0,-616.8119370000001
285,9.703119607427443,0.6004612399354541,10.41808631534315,0.8701749270563227,-21.0,-616.8119370000001
286,9.737165641137713,0.38514048358632574,10.45213234905342,0.4709473569248586,-21.0,-616.8119370000001
287,9.771211674847985,0.13772658770338653,10.486178382763692,0.23418374297167552,-21.0,-616.8119370000001
288,9.805257708558257,-0.07984494138682205,10.520224416473964,0.15257967076143686,-21.0,-616.8119370000001
289,9.839303742268529,-0.21966451765342015,9.737165641137713,0.0911390319488394,3.0,88.11599100000001
290,9.8733497759788,-0.26967803882780256,9.771211674847985,0.08274103147254756,3.0,88.11599100000001
291,9.907395809689072,-0.2580770064651732,9.805257708558257,0.04875931333016836,3.0,88.11599100000001
292,9.941441843399344,-0.23744585301397603,9.839303742268529,-0.06037079667778117,3.0,88.11599100000001
293,9.975487877109616,-0.25770355009408047,9.8733497759788,-0.23251124688754451,3.0,88.11599100000001
294,10.009533910819886,-0.343068785680257,9.90739580968907,-0.4201034118210424,3.0,88.11599100000001
295,10.043579944530158,-0.4843141650777976,9.941441843399343,-0.584820642367466,3.0,88.11599100000001
296,10.07762597824043,-0.6470948100800235,9.975487877109614,-0.7278097779318388,3.0,88.11599100000001
297,10.111672011950702,-0.7887745554316468,10.009533910819886,-0.8833662258041839,3.0,88.11599100000001
298,10.145718045660974,-0.8743425089667679,10.043579944530158,-1.0786759659629959,3.0,88.11599100000001
299,10.179764079371246,-0.8847289100462704,10.07762597824043,-1.2870080801224817,3.0,88.11599100000001
300,10.213810113081518,-0.8153705372458995,10.111672011950702,-1.4109680135818803,3.0,88.11599100000001
301,10.24785614679179,-0.668383116463296,10.145718045660974,-1.3178366865293263,3.0,88.11599100000001
302,10.281902180502062,-0.44614606499129433,10.179764079371246,-0.9159846681460292,3.0,88.11599100000001
303,10.315948214212332,-0.15332052259555887,10.213810113081516,-0.22899867494437243,3.0,88.11599100000001
304,10.349994247922604,0.1931887784181552,10.247856146791788,0.5839288754455475,3.0,88.11599100000001
305,10.384040281632876,0.5556469224471413,10.28190218050206,1.2852136205171123,3.0,88.11599100000001
306,10.418086315343148,0.8796151434631944,10.315948214212332,1.6681154912080705,3.0,88.11599100000001
307,10.45213234905342,1.1143599418791057,10.349994247922604,1.655215930198247,3.0,88.11599100000001
308,10.486178382763692,1.2398885413776939,10.384040281632876,1.3275760524333262,3.0,88.11599100000001
309,10.520224416473964,1.2808974388695464,10.418086315343148,0.8701749270563436,3.0,88.11599100000001
310,10.554270450184235,1.2905800029748602,10.45213234905342,0.4709473569248586,3.0,88.11599100000001
311,10.588316483894507,1.3067973111639137,11.269237158099942,0.14580189012731554,-20.0,-587.43994
312,10.622362517604778,1.308997400426304,11.303283191810213,0.053744290908706874,-20.0,-587.43994
313,10.65640855131505,1.2130346797247902,11.337329225520484,-0.0007586109820018954,-20.0,-587.43994
314,10.690454585025321,0.9183474435087279,11.371375259230756,-0.0952330186018999,-20.0,-587.43994
315,10.724500618735593,0.3821380482731939,11.405421292941028,-0.2537419492566523,-20.0,-587.43994
316,10.758546652445865,-0.3292047108479687,11.4394673266513,-0.44604278834033406,-20.0,-587.43994
317,10.792592686156137,-1.049777882202813,11.473513360361572,-0.6226545430540905,-20.0,-587.43994
318,10.82663871986641,-1.5842386375517428,11.541605427782116,-0.869808359642292,-21.0,-616.8119370000001
319,10.860684753576681,-1.798654547319908,11.882065764884834,1.986870175898263,-30.0,-881.15991
320,10.894730787286953,-1.679820860957892,11.916111798595105,2.000231128458009,-30.0,-881.15991
321,10.928776820997223,-1.3319516876449409,11.950157832305376,1.6976861072929517,-30.0,-881.15991
322,10.962822854707495,-0.9186577350883004,11.984203866015648,1.2362938693259202,-30.0,-881.15991
323,10.996868888417767,-0.5866732701130668,12.01824989972592,0.7791056886025405,-30.0,-881.15991
324,11.030914922128039,-0.4098835806812922,12.052295933436191,0.4314906390905186,-30.0,-881.15991
325,11.06496095583831,-0.37502484272925735,12.086341967146463,0.21875266908672958,-30.0,-881.15991
326,11.099006989548583,-0.4084964707022176,12.120388000856735,0.10357651338075978,-30.0,-881.15991
327,11.133053023258855,-0.4247308303813454,12.154434034567007,0.02374068377801564,-30.0,-881.15991
328,11.167099056969127,-0.36747885587555185,12.18848006827728,-0.07240756632566604,-30.0,-881.15991
329,11.201145090679397,-0.22392515495793033,12.22252610198755,-0.20666052277090155,-30.0,-881.15991
330,11.235191124389669,-0.013225725619844333,12.256572135697821,-0.3701131923283433,-30.0,-881.15991
331,11.26923715809994,0.23231592902644757,12.699170573931353,1.024136250906345,-42.0,-1233.6238740000001
332,11.303283191810213,0.47715051561680555,12.733216607641625,1.6206649549225083,-42.0,-1233.6238740000001
333,11.337329225520484,0.6829322086029306,12.767262641351897,1.8618948507755768,-42.0,-1233.6238740000001
334,11.371375259230756,0.8114890122395382,12.801308675062169,1.7452772764935267,-42.0,-1233.6238740000001
335,11.405421292941028,0.8383480468163972,12.869400742482712,1.0030414512600252,-43.0,-1262.995871
336,11.4394673266513,0.7690889175200539,12.903446776192984,0.7046576231966991,-43.0,-1262.995871
337,11.473513360361572,0.6428708502804854,13.38009124813679,-1.6388387457478857,-56.0,-1644.831832
338,11.507559394071842,0.517569220803335,13.41413728184706,-1.7082058622751222,-56.0,-1644.831832
339,11.541605427782114,0.44524312237093844,13.448183315557332,-1.4947980282495308,-56.0,-1644.831832
340,11.575651461492386,0.4488524182999154,13.482229349267604,-0.9379707392116615,-56.0,-1644.831832
341,11.609697495202658,0.5059095460033998,13.516275382977875,-0.10704310453784965,-56.0,-1644.831832
342,11.64374352891293,0.5452527300500767,13.516275382977875,-0.10704310453784965,-55.0,-1615.459835
343,11.677789562623202,0.4672439830632131,13.550321416688147,0.8063218042056942,-55.0,-1615.459835
344,11.711835596333474,0.19156336268922258,13.58436745039842,1.5629356937321448,-55.0,-1615.459835
345,11.745881630043746,-0.2827374844978507,13.618413484108691,1.9803138198623564,-55.0,-1615.459835
346,11.779927663754018,-0.8390002622830768,13.652459517818963,2.0082408747565057,-55.0,-1615.459835
347,11.813973697464288,-1.2615020833430761,13.686505551529233,1.735727035592715,-55.0,-1615.459835
348,11.84801973117456,-1.3216069892733728,13.720551585239505,1.3319923663026207,-55.0,-1615.459835
349,11.882065764884832,-0.9013210317006641,13.754597618949777,0.9603725028876924,-55.0,-1615.459835
350,11.916111798595104,-0.08945375939414606,13.788643652660049,0.7121370375436684,-55.0,-1615.459835
351,11.950157832305376,0.8166082271940796,13.822689686370321,0.5878843481873133,-55.0,-1615.459835
352,11.984203866015648,1.4292548542778916,13.856735720080593,0.5244505783782504,-55.0,-1615.459835
353,12.01824989972592,1.4635413774319288,13.890781753790865,0.4436043345644853,-55.0,-1615.459835
354,12.052295933436191,0.8981592456199091,13.924827787501137,0.29436332973787627,-55.0,-1615.459835
355,12.086341967146463,-0.001269740018002819,13.039630911034072,0.3766945786989815,-28.0,-822.415916
356,12.120388000856734,-0.8237139526794262,13.073676944744342,0.1696087927875489,-28.0,-822.415916
357,12.154434034567005,-1.2378880048042815,13.107722978454614,-0.11224858647720101,-28.0,-822.415916
358,12.188480068277277,-1.161896985544576,14.061011922342223,-0.6556666061918204,-55.0,-1615.459835
359,12.22252610198755,-0.7753502429988017,14.095057956052495,-0.7999846677608256,-55.0,-1615.459835
360,12.256572135697821,-0.3778859167192455,14.129103989762767,-0.8996984959117648,-55.0,-1615.459835
361,12.290618169408093,-0.1961169048011229,14.163150023473039,-0.9999130708119518,-55.0,-1615.459835
362,12.324664203118365,-0.26271317569668395,13.277953147005974,-1.0228266723703858,-28.0,-822.415916
363,12.358710236828637,-0.42975073796860036,13.311999180716246,-1.1930918507732344,-28.0,-822.415916
364,12.392756270538909,-0.48706044486026334,14.231242090893582,-1.3832684207312878,-54.0,-1586.087838
365,12.426802304249179,-0.2987013194131037,14.265288124603853,-1.6604673174855271,-54.0,-1586.087838
366,12.460848337959451,0.12381537380326656,14.299334158314124,-1.8799724552921504,-54.0,-1586.087838
367,12.494894371669723,0.6393786157047149,14.333380192024396,-1.8916770493411417,-54.0,-1586.087838
368,12.528940405379995,1.0559148420425541,13.448183315557332,-1.4947980282495308,-27.0,-793.043919
369,12.562986439090267,1.2159702182744283,14.367426225734668,-1.5655084505657673,-53.0,-1556.715841
370,12.597032472800539,1.0516881161284164,14.40147225944494,-0.8704904705617744,-53.0,-1556.715841
371,12.63107850651081,0.6011707607396677,14.435518293155212,0.08061386402913531,-53.0,-1556.715841
372,12.665124540221083,-0.006237452550590224,14.469564326865484,1.057932115496044,-53.0,-1556.715841
373,12.699170573931353,-0.5891602969968193,14.503610360575754,1.8080098770086097,-53.0,-1556.715841
374,12.733216607641625,-0.9723080453245323,14.537656394286026,2.1649615347398803,-53.0,-1556.715841
375,12.767262641351897,-1.048762264799626,14.60574846170657,1.7886303310664329,-54.0,-1586.087838
376,12.801308675062169,-0.8208869178063278,13.720551585239505,1.3319923663026207,-27.0,-793.043919
377,12.83535470877244,-0.3969723456688839,13.754597618949777,0.9603725028876924,-27.0,-793.043919
378,12.869400742482712,0.05885799777567856,12.937492809903256,0.5551052169154228,-2.0,-58.743994
379,12.903446776192984,0.39908081114950794,12.937492809903256,0.5551052169154228,-1.0,-29.371997
380,12.937492809903256,0.549110134739123,12.971538843613528,0.5113818656944743,-1.0,-29.371997
381,12.971538843613528,0.5201705309885402,13.0055848773238,0.47999444297855715,-1.0,-29.371997
382,13.005584877323798,0.3803018199272758,13.03963091103407,0.3766945786989923,-1.0,-29.371997
383,13.03963091103407,0.2094175340963316,13.073676944744342,0.1696087927875489,-1.0,-29.371997
384,13.073676944744342,0.06640023665438884,13.107722978454614,-0.11224858647720101,-1.0,-29.371997
385,13.107722978454614,-0.021118436083693983,13.141769012164886,-0.403263033065052,-1.0,-29.371997
386,13.141769012164886,-0.05208112010080501,14.02696588863195,-0.4483989400891655,-26.0,-763.671922
387,13.175815045875158,-0.044229132443014026,14.061011922342223,-0.6556666061918204,-26.0,-763.671922
388,13.20986107958543,-0.02581985959551353,14.095057956052495,-0.7999846677608256,-26.0,-763.671922
389,13.243907113295702,-0.022274019796967432,14.129103989762767,-0.8996984959117648,-26.0,-763.671922
390,13.277953147005974,-0.03889671399073933,14.163150023473039,-0.9999130708119518,-26.0,-763.671922
391,13.311999180716244,-0.05200202545489876,14.197196057183309,-1.1523561233627426,-26.0,-763.671922
392,13.346045214426516,-0.02120557450660683,14.23124209089358,-1.3832684207312733,-26.0,-763.671922
393,13.380091248136788,0.07966924960787776,14.265288124603853,-1.6604673174855271,-26.0,-763.671922
394,13.41413728184706,0.2339025957231609,14.299334158314124,-1.8799724552921504,-26.0,-763.671922
395,13.448183315557332,0.3790891205077248,14.333380192024396,-1.8916770493411417,-26.0,-763.671922
396,13.482229349267604,0.43633186677263547,14.367426225734668,-1.5655084505657673,-26.0,-763.671922
397,13.516275382977875,0.3542094957028008,14.40147225944494,-0.8704904705617744,-26.0,-763.671922
398,13.550321416688147,0.14030179378159596,14.435518293155212,0.08061386402913531,-26.0,-763.671922
399,13.58436745039842,-0.1387095749356219,14.469564326865484,1.057932115496044,-26.0,-763.671922
400,13.61841348410869,-0.38898011429497653,14.503610360575754,1.8080098770086097,-26.0,-763.671922
401,13.652459517818961,-0.5359360185594091,12.562986439090267,-1.4163247240668275,32.0,939.903904
402,13.686505551529233,-0.5586012168003633,12.597032472800539,-1.1470772288400652,32.0,939.903904
403,13.720551585239505,-0.49187940670400276,12.63107850651081,-0.5723418448565555,32.0,939.903904
404,13.754597618949777,-0.3976390142265063,12.665124540221083,0.21801766601781938,32.0,939.903904
405,13.788643652660049,-0.3264762808463111,12.699170573931355,1.024136250906376,32.0,939.903904
406,13.822689686370321,-0.2959384990466334,12.699170573931355,1.024136250906376,33.0,969.275901
407,13.856735720080593,-0.2944212676779472,12.733216607641626,1.620664954922521,33.0,969.275901
408,13.890781753790863,-0.2991071384905452,12.767262641351897,1.8618948507755768,33.0,969.275901
409,13.924827787501135,-0.289924591769263,12.801308675062169,1.7452772764935267,33.0,969.275901
410,13.958873821211407,-0.2514963287326098,12.83535470877244,1.398382385847179,33.0,969.275901
411,13.992919854921679,-0.168563261490958,12.869400742482712,1.0030414512600252,33.0,969.275901
412,14.02696588863195,-0.025659846209374254,12.903446776192984,0.7046576231966991,33.0,969.275901
413,14.061011922342223,0.18337031329831707,12.937492809903256,0.5551052169154228,33.0,969.275901
414,14.095057956052495,0.4407818267075769,12.562986439090267,-1.4163247240668275,45.0,1321.739865
415,14.129103989762767,0.6973677318741119,12.597032472800539,-1.1470772288400652,45.0,1321.739865
416,14.163150023473039,0.8824543123554466,12.63107850651081,-0.5723418448565555,45.0,1321.739865
417,14.197196057183309,0.9317428258853795,12.66512454022108,0.21801766601777817,45.0,1321.739865
418,14.23124209089358,0.8204950728453888,12.66512454022108,0.21801766601777817,46.0,1351.111862
419,14.265288124603853,0.5820508674424678,12.699170573931353,1.024136250906345,46.0,1351.111862
420,14.299334158314124,0.2960489066837806,12.733216607641625,1.6206649549225083,46.0,1351.111862
421,14.333380192024396,0.0484833036297874,12.767262641351897,1.8618948507755768,46.0,1351.111862
422,14.367426225734668,-0.11327533764338082,12.801308675062169,1.7452772764935267,46.0,1351.111862
423,14.40147225944494,-0.2009593683240658,12.83535470877244,1.398382385847179,46.0,1351.111862
424,14.435518293155212,-0.2672747047445832,12.869400742482712,1.0030414512600252,46.0,1351.111862
425,14.469564326865484,-0.3606407293813335,12.903446776192984,0.7046576231966991,46.0,1351.111862
426,14.503610360575754,-0.48241436085783856,12.937492809903254,0.5551052169154306,46.0,1351.111862
427,14.537656394286026,-0.5763366185120956,12.971538843613526,0.5113818656944766,46.0,1351.111862
428,14.571702427996298,-0.5608347704103153,13.03963091103407,0.3766945786989923,45.0,1321.739865
429,14.60574846170657,-0.3859069823544582,13.516275382977875,-0.10704310453784965,32.0,939.903904
430,14.639794495416842,-0.07658711690212858,13.550321416688147,0.8063218042056942,32.0,939.903904
431,14.673840529127114,0.26933720464475425,13.550321416688147,0.8063218042056942,33.0,969.275901
432,14.707886562837386,0.5317528035189248,13.58436745039842,1.5629356937321448,33.0,969.275901
433,14.741932596547658,0.6348970753883438,13.20986107958543,-0.8018042953064919,45.0,1321.739865
434,14.77597863025793,0.5850329623077021,13.243907113295702,-0.9097165958253389,45.0,1321.739865
435,14.8100246639682,0.4533619307235993,13.686505551529233,1.735727035592715,33.0,969.275901
436,14.844070697678472,0.3179470752560574,13.720551585239505,1.3319923663026207,33.0,969.275901
437,14.878116731388744,0.20835494526636694,13.754597618949777,0.9603725028876924,33.0,969.275901
438,14.912162765099016,0.09350037099867421,13.788643652660049,0.7121370375436684,33.0,969.275901
439,14.946208798809288,-0.08078107298164329,13.448183315557332,-1.4947980282495308,44.0,1292.367868
440,14.98025483251956,-0.3351635041330766,13.482229349267604,-0.9379707392116615,44.0,1292.367868
441,15.014300866229831,-0.6241984268425567,13.516275382977875,-0.10704310453784965,44.0,1292.367868
442,15.048346899940103,-0.8521711653053801,13.550321416688147,0.8063218042056942,44.0,1292.367868
443,15.082392933650373,-0.9285782536955494,13.584367450398418,1.5629356937321053,44.0,1292.367868
444,15.116438967360645,-0.8266272029517763,13.61841348410869,1.9803138198623549,44.0,1292.367868
445,15.150485001070917,-0.604186491547764,13.652459517818961,2.00824087475652,44.0,1292.367868
446,15.18453103478119,-0.37299989845386566,13.686505551529233,1.735727035592715,44.0,1292.367868
447,15.218577068491461,-0.2400763966058534,14.129103989762767,-0.8996984959117648,32.0,939.903904
448,15.252623102201733,-0.2614525788331042,14.163150023473039,-0.9999130708119518,32.0,939.903904
449,15.286669135912005,-0.43048024797278867,14.163150023473039,-0.9999130708119518,33.0,969.275901
450,15.320715169622277,-0.6927817551352826,14.19719605718331,-1.1523561233627546,33.0,969.275901
451,15.354761203332549,-0.9671807835993941,14.231242090893582,-1.3832684207312878,33.0,969.275901
452,15.388807237042819,-1.1612420039632965,14.265288124603853,-1.6604673174855271,33.0,969.275901
453,15.422853270753091,-1.1848779237365683,14.299334158314124,-1.8799724552921504,33.0,969.275901
454,15.456899304463363,-0.9703484650944253,14.333380192024396,-1.8916770493411417,33.0,969.275901
455,15.490945338173635,-0.4995750571044837,14.367426225734668,-1.5655084505657673,33.0,969.275901
456,15.524991371883907,0.17249752964051657,14.40147225944494,-0.8704904705617744,33.0,969.275901
457,15.559037405594179,0.916359252538721,14.435518293155212,0.08061386402913531,33.0,969.275901
458,15.59308343930445,1.5606577240386916,14.469564326865484,1.057932115496044,33.0,969.275901
459,15.627129473014723,1.9557341072803764,14.503610360575756,1.8080098770086284,33.0,969.275901
460,15.661175506724994,2.045297984912675,14.537656394286028,2.1649615347398776,33.0,969.275901
461,15.695221540435265,1.9097823212912672,14.571702427996298,2.116200993218583,33.0,969.275901
462,15.729267574145537,1.7463987751952361,14.60574846170657,1.7886303310664329,33.0,969.275901
463,15.763313607855808,1.7760391185519604,14.639794495416842,1.3706906365153155,33.0,969.275901
464,15.79735964156608,2.1115725925399533,14.673840529127114,1.0200902336850928,33.0,969.275901
465,15.831405675276352,2.659254575159046,14.707886562837386,0.8061718141104262,33.0,969.275901
466,15.865451708986624,3.1216981386579357,14.741932596547658,0.707083609783465,33.0,969.275901
467,15.899497742696896,3.120291103342145,14.77597863025793,0.6487669791236964,33.0,969.275901
468,15.933543776407168,2.3860100028225464,14.810024663968202,0.5554611681804915,33.0,969.275901
469,15.96758981011744,0.9207368873331788,14.844070697678474,0.38509660413883706,33.0,969.275901
470,16.00163584382771,-0.9653408192528417,14.878116731388744,0.1391192035576177,33.0,969.275901
471,16.035681877537982,-2.774103238046648,14.912162765099016,-0.14811930258430803,33.0,969.275901
472,16.069727911248254,-4.03881851545382,14.946208798809288,-0.4287592851767314,33.0,969.275901
473,16.103773944958526,-4.518758823666661,14.98025483251956,-0.6604625050866165,33.0,969.275901
474,16.137819978668798,-4.264382267935029,15.014300866229831,-0.8212613819997546,33.0,969.275901
475,16.17186601237907,-3.5406498450353023,15.048346899940103,-0.9186839394384851,33.0,969.275901
476,16.20591204608934,-2.6832700142843264,15.082392933650375,-0.9898117883180254,33.0,969.275901
477,16.239958079799614,-1.976811581052188,15.116438967360647,-1.0871846013352553,33.0,969.275901
478,16.274004113509886,-1.5916935234669056,15.150485001070919,-1.2491853942916242,33.0,969.275901
479,16.308050147220158,-1.5607420674089656,15.184531034781191,-1.4642490364056175,33.0,969.275901
480,16.34209618093043,-1.7662920964241378,15.218577068491463,-1.6501316238656434,33.0,969.275901
481,16.3761422146407,-1.9446305018111403,15.252623102201735,-1.6711053305909973,33.0,969.275901
482,16.410188248350973,-1.7496923750419582,15.286669135912007,-1.3988351909305876,33.0,969.275901
483,16.44423428206124,-0.9021879754375857,15.320715169622275,-0.7920801209374378,33.0,969.275901
484,16.478280315771514,0.6232682146107338,15.354761203332547,0.05278319755193994,33.0,969.275901
485,16.512326349481786,2.496401732742854,15.388807237042819,0.9211668808573343,33.0,969.275901
486,16.546372383192057,4.130610155134004,15.422853270753091,1.569866612189446,33.0,969.275901
487,16.58041841690233,4.971782768090802,16.342096180930426,1.6940127260148055,7.0,205.603979
488,16.6144644506126,4.800509171834791,16.376142214640698,1.4056849770084727,7.0,205.603979
489,16.648510484322873,3.8291244834390086,16.41018824835097,1.0014546523760464,7.0,205.603979
490,16.682556518033145,2.5260644282401254,16.44423428206124,0.6507773280198595,7.0,205.603979
491,16.716602551743417,1.3164886883989286,16.478280315771514,0.4472669482050659,7.0,205.603979
492,16.75064858545369,0.3826068365237187,16.512326349481786,0.38659760593626574,7.0,205.603979
493,16.78469461916396,-0.33013596488640634,16.546372383192057,0.3937915230812559,7.0,205.603979
494,16.818740652874233,-0.9585841503451017,16.58041841690233,0.3761291573215096,7.0,205.603979
495,16.852786686584505,-1.548540991833358,16.6144644506126,0.2719371787883758,7.0,205.603979
496,16.886832720294777,-1.9714187120340954,16.648510484322873,0.07462661892064601,7.0,205.603979
497,16.92087875400505,-1.9816015809081047,16.682556518033145,-0.17339065555658037,7.0,205.603979
498,16.95492478771532,-1.390530517145221,16.716602551743417,-0.40901508441578366,7.0,205.603979
499,16.988970821425593,-0.25681650539648143,16.75064858545369,-0.583742020934669,7.0,205.603979
500,17.02301685513586,1.0407218366598716,16.784694619163957,-0.6894891662663543,7.0,205.603979
501,17.057062888846133,1.9248783183839768,16.81874065287423,-0.7625774820149599,7.0,205.603979
502,17.091108922556405,1.8920098150262274,16.8527866865845,-0.8618358356564129,7.0,205.603979
503,17.125154956266677,0.7869057448866351,16.886832720294773,-1.0282846605710196,7.0,205.603979
504,17.15920098997695,-1.0743768599173575,16.920878754005045,-1.2452764322399592,7.0,205.603979
505,17.19324702368722,-3.007163004381625,16.954924787715317,-1.423432190498632,7.0,205.603979
506,17.227293057397493,-4.246916943944361,16.98897082142559,-1.4277147517325315,7.0,205.603979
507,17.261339091107764,-4.291742820682499,17.874167697892656,-1.388594307563615,-18.0,-528.695946
508,17.295385124818036,-3.129811626365649,17.057062888846133,-0.547146364167566,7.0,205.603979
509,17.32943115852831,-1.2302855947615101,17.091108922556405,0.25059413865410807,7.0,205.603979
510,17.36347719223858,0.7003226848543965,17.125154956266677,1.040190420112516,7.0,205.603979
511,17.397523225948852,2.0585775832012945,17.15920098997695,1.5987969494548024,7.0,205.603979
512,17.431569259659124,2.5880909796248583,18.044397866444015,1.612520492749456,-18.0,-528.695946
513,17.465615293369396,2.4071906357516424,18.078443900154287,1.815941050514079,-18.0,-528.695946
514,17.499661327079668,1.8478252531320054,18.11248993386456,1.6353463707429972,-18.0,-528.695946
515,17.53370736078994,1.2393026598423333,18.14653596757483,1.2107812421487942,-18.0,-528.695946
516,17.567753394500212,0.7696667522848176,18.180582001285103,0.7459465938897705,-18.0,-528.695946
517,17.601799428210484,0.47625160831890206,18.214628034995375,0.4073234849904629,-18.0,-528.695946
518,17.635845461920752,0.32414015090572496,18.248674068705643,0.25756095497021947,-18.0,-528.695946
519,17.669891495631024,0.2861020764139452,18.282720102415915,0.2510798003903342,-18.0,-528.695946
520,17.703937529341296,0.3632586959399068,18.316766136126187,0.2822327259767978,-18.0,-528.695946
521,17.737983563051568,0.5517595658897624,18.35081216983646,0.2517581787581409,-18.0,-528.695946
522,17.77202959676184,0.8044569010970032,18.38485820354673,0.11555596599940364,-18.0,-528.695946
523,17.80607563047211,1.0259258691565587,18.418904237257003,-0.10402992908901831,-18.0,-528.695946
524,17.840121664182384,1.1008861992840229,18.452950270967275,-0.3426001582590753,-18.0,-528.695946
525,17.874167697892656,0.932951501919632,18.486996304677547,-0.5358353221116633,-18.0,-528.695946
526,17.908213731602928,0.47464602213179735,18.52104233838782,-0.6561247640103477,-18.0,-528.695946
527,17.9422597653132,-0.25521195698733073,18.55508837209809,-0.7256039602922627,-18.0,-528.695946
528,17.97630579902347,-1.1624495304588924,18.589134405808363,-0.7994707108747466,-18.0,-528.695946
529,18.010351832733743,-2.078259772496917,18.623180439518634,-0.9272403239511563,-18.0,-528.695946
530,18.044397866444015,-2.783418588414407,18.657226473228906,-1.1107421282613934,-18.0,-528.695946
531,18.078443900154287,-3.0690968263147185,18.69127250693918,-1.282342975342871,-18.0,-528.695946
532,18.11248993386456,-2.8220203519591474,18.72531854064945,-1.3214191105111674,-18.0,-528.695946
533,18.14653596757483,-2.089037846942058,18.759364574359722,-1.1097912048179535,-18.0,-528.695946
534,18.180582001285103,-1.0721830931175789,18.793410608069994,-0.602795716835016,-18.0,-528.695946
535,18.214628034995375,-0.044760031704083124,18.827456641780266,0.12418006966411209,-18.0,-528.695946
536,18.248674068705643,0.7663089498686213,18.861502675490534,0.8879627891159838,-18.0,-528.695946
537,18.282720102415915,1.2624430007280536,18.895548709200806,1.471326972554949,-18.0,-528.695946
538,18.316766136126187,1.4769356741331825,18.92959474291108,1.7213878448795028,-18.0,-528.695946
539,18.35081216983646,1.5120006904108347,18.96364077662135,1.6170768891113954,-18.0,-528.695946
540,18.38485820354673,1.4605552591813962,18.997686810331622,1.2680097565899098,-18.0,-528.695946
541,18.418904237257003,1.3623348445581398,19.031732844041894,0.8495048470696979,-18.0,-528.695946
542,18.452950270967275,1.2102356808222634,19.065778877752166,0.5149647024930916,-18.0,-528.695946
543,18.486996304677547,0.9866516254976538,19.099824911462438,0.33388166047604095,-18.0,-528.695946
544,18.52104233838782,0.6962846748697323,19.13387094517271,0.2817981503165976,-18.0,-528.695946
545,18.55508837209809,0.3741303939223093,19.16791697888298,0.27651848176246513,-18.0,-528.695946
546,18.589134405808363,0.06918491422115097,20.05311385535005,0.3965380962959498,-43.0,-1262.995871
547,18.623180439518634,-0.1797409443116313,20.08715988906032,0.31715205422157355,-43.0,-1262.995871
548,18.657226473228906,-0.3574044906780824,18.418904237257003,-0.10402992908901831,7.0,205.603979
549,18.69127250693918,-0.4681156007551741,18.452950270967275,-0.3426001582590753,7.0,205.603979
550,18.72531854064945,-0.5239308754615085,18.452950270967275,-0.3426001582590753,8.0,234.975976
551,18.759364574359722,-0.538339320710999,19.372193181144613,-0.6402082003961655,-18.0,-528.695946
552,18.793410608069994,-0.5274631842321165,19.406239214854885,-0.7174129874291183,-18.0,-528.695946
553,18.827456641780262,-0.5100965928394062,19.440285248565154,-0.7898163025407994,-18.0,-528.695946
554,18.861502675490534,-0.4997130656065454,19.474331282275426,-0.9126414714858608,-18.0,-528.695946
555,18.895548709200806,-0.49192602688285747,19.508377315985697,-1.106784453830198,-18.0,-528.695946
556,18.92959474291108,-0.45898031284533364,19.54242334969597,-1.3256769027384907,-18.0,-528.695946
557,18.96364077662135,-0.3614490147151345,19.57646938340624,-1.4550853296126933,-18.0,-528.695946
558,18.997686810331622,-0.1756710825266879,19.610515417116513,-1.357370222685394,-18.0,-528.695946
559,19.031732844041894,0.07925443379386618,19.644561450826785,-0.9459290898215486,-18.0,-528.695946
560,19.065778877752166,0.33651471102360503,19.678607484537057,-0.2504891938718186,-18.0,-528.695946
561,19.099824911462438,0.5090251150793276,19.71265351824733,0.5705664436257134,-18.0,-528.695946
562,19.13387094517271,0.537207108991892,19.7466995519576,1.2884240965838438,-18.0,-528.695946
563,19.16791697888298,0.4270236052265923,19.780745585667873,1.706091332062823,-18.0,-528.695946
564,19.201963012593254,0.25025289914846777,19.814791619378145,1.7472389818129217,-18.0,-528.695946
565,19.236009046303526,0.10340173861121892,19.848837653088417,1.4812348503893398,-18.0,-528.695946
566,19.270055080013798,0.05073559711471554,19.88288368679869,1.0745479219259182,-18.0,-528.695946
567,19.30410111372407,0.08758870081558333,19.950975754219233,0.4721233343139965,-19.0,-558.067943
568,19.33814714743434,0.14620665454472742,19.985021787929504,0.3931278857124911,-19.0,-558.067943
569,19.372193181144613,0.14019359345553487,20.870218664396567,0.32384924958089994,-44.0,-1292.367868
570,19.406239214854885,0.02128461829868589,18.793410608069994,-0.602795716835016,18.0,528.695946
571,19.440285248565154,-0.18545370439257783,18.827456641780262,0.12418006966403239,18.0,528.695946
572,19.474331282275426,-0.3905253816342343,18.861502675490534,0.8879627891159838,18.0,528.695946
573,19.508377315985697,-0.4899654248406112,18.895548709200806,1.471326972554949,18.0,528.695946
574,19.54242334969597,-0.42780744286946315,18.92959474291108,1.7213878448795028,18.0,528.695946
575,19.57646938340624,-0.23332828537477993,18.96364077662135,1.6170768891113954,18.0,528.695946
576,19.610515417116513,-0.009223061454214835,18.997686810331622,1.2680097565899098,18.0,528.695946
577,19.644561450826785,0.12422939930945166,19.031732844041894,0.8495048470696979,18.0,528.695946
578,19.678607484537057,0.09772949178501343,19.065778877752166,0.5149647024930916,18.0,528.695946
579,19.71265351824733,-0.06489856792635124,19.099824911462438,0.33388166047604095,18.0,528.695946
580,19.7466995519576,-0.25605143952300913,19.54242334969597,-1.3256769027384907,6.0,176.23198200000002
581,19.780745585667873,-0.3425821476489242,19.57646938340624,-1.4550853296126933,6.0,176.23198200000002
582,19.814791619378145,-0.24250629780469407,19.610515417116513,-1.357370222685394,6.0,176.23198200000002
583,19.848837653088417,0.023570300293555786,20.121205922770592,0.14120462490453495,-8.0,-234.975976
584,19.88288368679869,0.33835665513117724,20.155251956480864,-0.1017489615955362,-8.0,-234.975976
585,19.91692972050896,0.5503393108794199,20.189297990191136,-0.3540709260059006,-8.0,-234.975976
586,19.950975754219233,0.5584195458238228,20.223344023901408,-0.5588431490992251,-8.0,-234.975976
587,19.985021787929504,0.3720990633210471,20.25739005761168,-0.6858555530043104,-8.0,-234.975976
588,20.019067821639773,0.11522652388362889,20.29143609132195,-0.7463841247524996,-8.0,-234.975976
589,20.053113855350045,-0.030167704175512337,20.32548212503222,-0.789895700967377,-8.0,-234.975976
590,20.087159889060317,0.08310383162685225,20.359528158742492,-0.8792561531798608,-8.0,-234.975976
591,20.12120592277059,0.4778055610613437,20.393574192452764,-1.0497995700896992,-8.0,-234.975976
592,20.15525195648086,1.0109942560917562,20.427620226163036,-1.27033606180828,-8.0,-234.975976
593,20.189297990191132,1.411852627186824,20.461666259873308,-1.4324150835436917,-8.0,-234.975976
594,20.223344023901404,1.395519087866927,20.49571229358358,-1.3869891383330635,-8.0,-234.975976
595,20.257390057611676,0.8086949946711904,20.52975832729385,-1.021739175376897,-8.0,-234.975976
596,20.29143609132195,-0.26417909293700065,20.563804361004124,-0.34029708786735363,-8.0,-234.975976
597,20.32548212503222,-1.500722865971851,20.597850394714396,0.5088914108878617,-8.0,-234.975976
598,20.359528158742492,-2.4675915278915617,20.631896428424668,1.2833998412091914,-8.0,-234.975976
599,20.393574192452764,-2.821379675747818,20.66594246213494,1.7566927611937562,-8.0,-234.975976
600,20.427620226163036,-2.4728206515143345,20.69998849584521,1.8247369375595779,-8.0,-234.975976
601,20.461666259873308,-1.6163639003046824,20.734034529555483,1.54689349621243,-8.0,-234.975976
602,20.49571229358358,-0.611063351108387,20.768080563265755,1.1008650601965642,-8.0,-234.975976
603,20.52975832729385,0.20823494620326008,20.802126596976027,0.6841687697746756,-8.0,-234.975976
604,20.563804361004124,0.675675426516271,20.8361726306863,0.4213283973193258,-8.0,-234.975976
605,20.597850394714396,0.8222369432265703,20.87021866439657,0.3238492495808989,-8.0,-234.975976
606,20.631896428424664,0.7942070396646121,20.90426469810684,0.3136568033822757,-8.0,-234.975976
607,20.665942462134936,0.7338632212834996,20.93831073181711,0.2856809845064498,-8.0,-234.975976
608,20.699988495845208,0.7023715459201733,20.972356765527383,0.17005821265098495,-8.0,-234.975976
609,20.73403452955548,0.6803999026687563,20.12120592277059,0.1412046249045603,18.0,528.695946
610,20.76808056326575,0.6235548329158022,20.15525195648086,-0.10174896159550988,18.0,528.695946
611,20.802126596976024,0.518763623399267,20.189297990191132,-0.35407092600587925,18.0,528.695946
612,20.836172630686296,0.3987789614572383,20.223344023901404,-0.5588431490992118,18.0,528.695946
613,20.870218664396567,0.31136057000113715,20.257390057611676,-0.6858555530043041,18.0,528.695946
614,20.90426469810684,0.27703339788293413,20.29143609132195,-0.7463841247524996,18.0,528.695946
615,20.93831073181711,0.27538390570546967,21.210679001499287,-0.9954731575836498,-8.0,-234.975976
616,20.972356765527383,0.2703758766843338,21.24472503520956,-1.1737868870619208,-8.0,-234.975976
617,21.006402799237655,0.24793368894277767,21.27877106891983,-1.3397613855009354,-8.0,-234.975976
618,21.040448832947927,0.22873299265750116,21.312817102630103,-1.3779220306657036,-8.0,-234.975976
619,21.0744948666582,0.24435884724187212,21.346863136340374,-1.170717594332537,-8.0,-234.975976
620,21.10854090036847,0.30019918827724834,21.380909170050646,-0.6697608589512165,-8.0,-234.975976
621,21.142586934078743,0.3592036663967976,20.52975832729385,-1.021739175376897,18.0,528.695946
622,21.176632967789015,0.3591619636888632,20.563804361004124,-0.34029708786735363,18.0,528.695946
623,21.210679001499283,0.24770513830568683,20.597850394714392,0.5088914108877731,18.0,528.695946
624,21.244725035209555,0.010856282009072708,20.631896428424664,1.283399841209142,18.0,528.695946
625,21.278771068919827,-0.3173295294815331,20.665942462134936,1.756692761193749,18.0,528.695946
626,21.3128171026301,-0.6636974053088448,20.699988495845208,1.824736937559607,18.0,528.695946
627,21.34686313634037,-0.9396087796023515,20.73403452955548,1.5468934962124767,18.0,528.695946
628,21.380909170050643,-1.0739715198143562,20.76808056326575,1.1008650601966077,18.0,528.695946
629,21.414955203760915,-1.0438123513439117,20.802126596976024,0.684168769774703,18.0,528.695946
630,21.449001237471187,-0.8851709076597684,20.836172630686296,0.42132839731933597,18.0,528.695946
631,21.48304727118146,-0.6739767077034988,20.870218664396567,0.32384924958089994,18.0,528.695946
632,21.51709330489173,-0.4846641038038722,20.90426469810684,0.3136568033822757,18.0,528.695946
633,21.551139338602002,-0.3502841205120169,21.823507608284178,0.03516408725002023,-8.0,-234.975976
634,21.585185372312274,-0.24892870641637158,21.85755364199445,-0.19721749382697462,-8.0,-234.975976
635,21.619231406022546,-0.12548050046754566,21.89159967570472,-0.44911583082205436,-8.0,-234.975976
636,21.65327743973282,0.0644260636696677,21.925645709414994,-0.6816856219474872,-8.0,-234.975976
637,21.68732347344309,0.3154590265601657,21.959691743125266,-0.8856463504634615,-8.0,-234.975976
638,21.721369507153362,0.5641630241322065,21.993737776835538,-1.0785167562930853,-8.0,-234.975976
639,21.755415540863634,0.719616350078533,22.02778381054581,-1.2754249918112355,-8.0,-234.975976
640,21.789461574573906,0.7172203922016941,23.696039462349123,-1.3328676205534649,-56.0,-1644.831832
641,21.823507608284174,0.5623157155109031,23.73008549605939,-1.30916891028994,-56.0,-1644.831832
642,21.857553641994446,0.3341711529505336,23.764131529769664,-1.0288787039116536,-56.0,-1644.831832
643,21.891599675704718,0.14556007098196772,22.198013979097162,-0.38459518324470954,-9.0,-264.347973
644,21.92564570941499,0.08172800947875379,22.232060012807434,0.39446892100913844,-9.0,-264.347973
645,21.959691743125262,0.1556886720518925,22.266106046517706,1.1122486203994137,-9.0,-264.347973
646,21.993737776835534,0.3066196490595353,22.300152080227978,1.5857127217404803,-9.0,-264.347973
647,22.027783810545806,0.44091204389207656,22.33419811393825,1.722444931037148,-9.0,-264.347973
648,22.061829844256078,0.48753560749950464,22.36824414764852,1.5543008052292615,-9.0,-264.347973
649,22.09587587796635,0.43053646763492454,22.402290181358794,1.2093255125911428,-9.0,-264.347973
650,22.12992191167662,0.3002439244899712,22.436336215069066,0.8419659183041933,-9.0,-264.347973
651,22.163967945386894,0.13689491245108482,22.470382248779337,0.5621886711714439,-9.0,-264.347973
652,22.198013979097166,-0.04034547995464001,22.50442828248961,0.3989082838151724,-9.0,-264.347973
653,22.232060012807437,-0.23422497342444343,22.53847431619988,0.30966644762298307,-9.0,-264.347973
654,22.26610604651771,-0.4433593597660683,22.572520349910153,0.22306994133119,-9.0,-264.347973
655,22.30015208022798,-0.637209480128321,22.606566383620425,0.08626780259277879,-9.0,-264.347973
656,22.334198113938253,-0.7598593793775187,22.640612417330697,-0.10850225703460187,-9.0,-264.347973
657,22.368244147648525,-0.7642264767342902,22.6406124173307,-0.10850225703462495,-8.0,-234.975976
658,22.402290181358794,-0.6488810015627462,23.015118788143685,-0.0499840341825695,-18.0,-528.695946
659,22.436336215069066,-0.46427307620540614,22.300152080227978,1.5857127217404803,4.0,117.487988
660,22.470382248779337,-0.28049712945084676,22.33419811393825,1.722444931037148,4.0,117.487988
661,22.50442828248961,-0.14309218308135144,22.36824414764852,1.5543008052292615,4.0,117.487988
662,22.53847431619988,-0.05426557883062734,22.402290181358794,1.2093255125911428,4.0,117.487988
663,22.572520349910153,0.00803898129360987,22.436336215069066,0.8419659183041933,4.0,117.487988
664,22.606566383620425,0.05743639365399589,22.470382248779337,0.5621886711714439,4.0,117.487988
665,22.640612417330697,0.087027494446805,22.50442828248961,0.3989082838151724,4.0,117.487988
666,22.67465845104097,0.08674030935531554,22.53847431619988,0.30966644762298307,4.0,117.487988
667,22.70870448475124,0.06794028317224744,23.355579125246404,0.2535497175623425,-19.0,-558.067943
668,22.742750518461513,0.0680706201003572,23.389625158956676,0.17083841915686349,-19.0,-558.067943
669,22.776796552171785,0.1279996865307168,23.423671192666948,0.017140397156870924,-19.0,-558.067943
670,22.810842585882057,0.2575789090075636,23.45771722637722,-0.19295220209486172,-19.0,-558.067943
671,22.84488861959233,0.41471303609393473,24.24077600171347,-0.023893530171817043,-41.0,-1204.251877
672,22.8789346533026,0.5169047555281379,22.742750518461513,-0.7094803002621373,4.0,117.487988
673,22.912980687012872,0.4847328406647143,22.776796552171785,-0.8668384869531828,4.0,117.487988
674,22.947026720723144,0.2934033392602928,22.810842585882057,-1.0406617331480783,4.0,117.487988
675,22.981072754433416,-0.0018530213707637834,22.84488861959233,-1.2399161440096427,4.0,117.487988
676,23.015118788143685,-0.2863742096964415,22.878934653302597,-1.4163954533410914,4.0,117.487988
677,23.049164821853957,-0.44182858938653663,22.91298068701287,-1.4655262915104446,4.0,117.487988
678,23.08321085556423,-0.4031988856661129,22.94702672072314,-1.2719018758395428,4.0,117.487988
679,23.1172568892745,-0.18438586280958466,22.981072754433413,-0.7802944771947847,4.0,117.487988
680,23.151302922984772,0.1374491816733863,23.015118788143685,-0.0499840341825695,4.0,117.487988
681,23.185348956695044,0.46254173132475723,23.049164821853957,0.7471795399939918,4.0,117.487988
682,23.219394990405316,0.7071858776776566,23.08321085556423,1.3931017712546019,4.0,117.487988
683,23.253441024115588,0.8232251632917728,23.1172568892745,1.7208375601171388,4.0,117.487988
684,23.28748705782586,0.7989386046388136,21.585185372312274,1.3907679804144686,50.0,1468.59985
685,23.321533091536132,0.6508828154013326,21.619231406022546,0.9940461049089092,50.0,1468.59985
686,23.355579125246404,0.4130230226788219,21.68732347344309,0.44607786388329107,49.0,1439.227853
687,23.389625158956676,0.12443810443889991,21.721369507153362,0.35168820249479377,49.0,1439.227853
688,23.423671192666948,-0.1811740677686029,21.755415540863634,0.2971292365382645,49.0,1439.227853
689,23.45771722637722,-0.4772424587148655,21.789461574573906,0.2043525706983631,49.0,1439.227853
690,23.49176326008749,-0.73584947636127,21.823507608284178,0.03516408725002023,49.0,1439.227853
691,23.525809293797764,-0.9196405906397718,21.85755364199445,-0.19721749382697462,49.0,1439.227853
692,23.559855327508036,-0.9877832624474326,23.423671192666948,0.017140397156870924,4.0,117.487988
693,23.593901361218304,-0.9173051751321853,22.67465845104097,-0.3296051333698094,27.0,793.043919
694,23.627947394928576,-0.7254079612895049,22.70870448475124,-0.5359698315778325,27.0,793.043919
695,23.661993428638848,-0.4744532308909206,22.742750518461513,-0.7094803002621373,27.0,793.043919
696,23.69603946234912,-0.2516787700969156,22.776796552171785,-0.8668384869531828,27.0,793.043919
697,23.73008549605939,-0.13065207531131792,22.810842585882057,-1.0406617331480783,27.0,793.043919
698,23.764131529769664,-0.1321169707394953,22.84488861959233,-1.2399161440096427,27.0,793.043919
699,23.798177563479936,-0.20591661008871645,22.8789346533026,-1.4163954533411098,27.0,793.043919
700,23.832223597190207,-0.2500549988468946,23.69603946234912,-1.3328676205534673,4.0,117.487988
701,23.86626963090048,-0.1641828646105611,23.73008549605939,-1.30916891028994,4.0,117.487988
702,23.90031566461075,0.08917484064041234,23.764131529769664,-1.0288787039116536,4.0,117.487988
703,23.934361698321023,0.45260713086896387,23.798177563479936,-0.47298166307702794,4.0,117.487988
704,23.968407732031295,0.7932435346805284,23.832223597190207,0.2570941968021928,4.0,117.487988
705,24.002453765741567,0.9651079938060784,23.86626963090048,0.9661714089424962,4.0,117.487988
706,24.03649979945184,0.8807968053390147,23.90031566461075,1.4494423168106125,4.0,117.487988
707,24.07054583316211,0.5553131091938898,23.934361698321023,1.5876625929790138,4.0,117.487988
708,24.104591866872383,0.10182829160905756,23.968407732031295,1.3982656963051725,4.0,117.487988
709,24.138637900582655,-0.31644853582769633,24.002453765741567,1.0152192709398666,4.0,117.487988
710,24.172683934292927,-0.5548636195846479,24.03649979945184,0.6139924635637717,4.0,117.487988
711,24.206729968003195,-0.5456224783235037,24.070545833162107,0.32712340263531786,4.0,117.487988
712,24.240776001713467,-0.321185369520741,24.10459186687238,0.19487672282073432,4.0,117.487988
713,24.27482203542374,0.006317532187262873,24.172683934292923,0.1650453097376227,3.0,88.11599100000001
714,24.30886806913401,0.3001951329603206,24.206729968003195,0.10764077194330415,3.0,88.11599100000001
715,24.342914102844283,0.4626074785495941,24.240776001713467,-0.023893530171798332,3.0,88.11599100000001
716,24.376960136554555,0.47278070407153905,24.27482203542374,-0.20319475392966893,3.0,88.11599100000001
717,24.411006170264827,0.3790474177997904,24.30886806913401,-0.38620454944574933,3.0,88.11599100000001
718,24.4450522039751,0.253117070506503,24.342914102844283,-0.5466609948432228,3.0,88.11599100000001
719,24.47909823768537,0.1399513920468958,24.376960136554555,-0.692365467152915,3.0,88.11599100000001
720,24.513144271395642,0.037407394894768006,24.411006170264827,-0.8508844258151836,3.0,88.11599100000001
721,24.547190305105914,-0.08332322982347283,24.4450522039751,-1.0331350512802608,3.0,88.11599100000001
722,24.581236338816186,-0.23510612673642695,24.47909823768537,-1.1997277428412993,3.0,88.11599100000001
723,24.61528237252646,-0.38484697998647105,24.513144271395642,-1.25779234885934,3.0,88.11599100000001
724,24.64932840623673,-0.46228153241431724,24.547190305105914,-1.1003370814231461,3.0,88.11599100000001
725,24.683374439947002,-0.40466371723103156,24.581236338816186,-0.6719546361015767,3.0,88.11599100000001
726,24.717420473657274,-0.20529726420579447,24.61528237252646,-0.021456767347109863,3.0,88.11599100000001
727,24.751466507367546,0.07089123671595561,24.64932840623673,0.6970299388243616,3.0,88.11599100000001
728,24.785512541077818,0.3171725097228527,24.683374439947002,1.2835392356738269,3.0,88.11599100000001
729,24.819558574788086,0.44062143413333904,24.71742047365727,1.5819577403463032,3.0,88.11599100000001
730,24.853604608498358,0.4091348678307092,24.751466507367542,1.548943819533116,3.0,88.11599100000001
731,24.88765064220863,0.26406299356133556,24.785512541077814,1.264205237182628,3.0,88.11599100000001
732,24.921696675918902,0.09411057645269402,24.819558574788086,0.8805725431926233,3.0,88.11599100000001
733,24.955742709629174,-0.01283691761900869,24.853604608498358,0.5460364923823787,3.0,88.11599100000001
734,24.989788743339446,-0.012886657617837492,24.88765064220863,0.3406981598836034,3.0,88.11599100000001
735,25.023834777049718,0.0772061714461398,24.921696675918902,0.25709657049865464,3.0,88.11599100000001
736,25.05788081075999,0.19371778972163883,24.955742709629174,0.2256053415642861,3.0,88.11599100000001
737,25.09192684447026,0.25743104959784663,24.989788743339446,0.16425423238997647,3.0,88.11599100000001
738,25.125972878180534,0.20670765637132782,25.023834777049718,0.024581150782753514,3.0,88.11599100000001
739,25.160018911890806,0.02187912336969842,25.05788081075999,-0.1877647464880609,3.0,88.11599100000001
740,25.194064945601077,-0.2650365370141899,25.09192684447026,-0.4236736577080024,3.0,88.11599100000001
741,25.22811097931135,-0.5804329995152163,25.125972878180534,-0.6233290856660205,3.0,88.11599100000001
742,25.26215701302162,-0.8386414146324129,25.160018911890806,-0.7526223366597283,3.0,88.11599100000001
743,25.296203046731893,-0.9790390412022728,25.194064945601077,-0.8236837908411287,3.0,88.11599100000001
744,25.330249080442165,-0.9915172194574019,25.22811097931135,-0.8870964381918214,3.0,88.11599100000001
745,25.364295114152437,-0.9155197500085671,25.26215701302162,-0.9969012972200889,3.0,88.11599100000001
746,25.398341147862705,-0.8119279882854016,25.29620304673189,-1.1651103040646125,3.0,88.11599100000001
747,25.432387181572977,-0.7232227521663928,25.33024908044216,-1.3326367183700922,3.0,88.11599100000001
748,25.46643321528325,-0.6464425107556097,25.364295114152434,-1.3802570599561814,3.0,88.11599100000001
749,25.50047924899352,-0.5376973672344955,25.398341147862705,-1.1835429859283306,3.0,88.11599100000001
750,25.534525282703793,-0.34715009495432325,25.432387181572977,-0.687480950256878,3.0,88.11599100000001
751,25.568571316414065,-0.06152591331105234,25.46643321528325,0.04261749844030269,3.0,88.11599100000001
752,25.602617350124337,0.2766932621670708,25.50047924899352,0.8303826235845404,3.0,88.11599100000001
753,25.63666338383461,0.5901061957159758,25.534525282703793,1.4602724273225136,3.0,88.11599100000001
754,25.67070941754488,0.8154263737284831,25.568571316414065,1.7743201751331301,3.0,88.11599100000001
755,25.704755451255153,0.9460626289317873,25.602617350124337,1.7390335603626184,3.0,88.11599100000001
756,25.738801484965425,1.0347360611479608,25.63666338383461,1.4471221489240862,3.0,88.11599100000001
757,25.772847518675697,1.1496698098906333,25.67070941754488,1.0593962389948068,3.0,88.11599100000001
758,25.80689355238597,1.3133707563824288,25.67070941754488,1.0593962389948068,4.0,117.487988
759,25.84093958609624,1.4702918516035743,25.738801484965425,0.521356275832592,3.0,88.11599100000001
760,25.874985619806512,1.512764622711465,25.772847518675697,0.44256386428206634,3.0,88.11599100000001
761,25.909031653516784,1.3534487830153958,25.80689355238597,0.4237124142005452,3.0,88.11599100000001
762,25.943077687227056,0.9965433417752267,25.80689355238597,0.4237124142005452,4.0,117.487988
763,25.97712372093733,0.5549698441783499,25.84093958609624,0.38745179264853735,4.0,117.487988
764,26.011169754647597,0.1929811429982903,25.87498561980651,0.2826491032974684,4.0,117.487988
765,26.04521578835787,0.0259933501621735,25.90903165351678,0.10187870978577418,4.0,117.487988
766,26.07926182206814,0.04469510675590915,25.943077687227053,-0.12376986407659082,4.0,117.487988
767,26.113307855778412,0.1165058167161946,25.977123720937325,-0.3444644044179211,4.0,117.487988
768,26.147353889488684,0.06310166741064152,26.011169754647597,-0.5157699498990133,4.0,117.487988
769,26.181399923198956,-0.2368351606026086,26.04521578835787,-0.6193042597059347,4.0,117.487988
770,26.215445956909228,-0.7803511831982213,26.07926182206814,-0.6741277724130628,4.0,117.487988
771,26.2494919906195,-1.4408513163888628,26.113307855778412,-0.733198619322523,4.0,117.487988
772,26.283538024329772,-2.0275108339669163,26.147353889488684,-0.8606356396830952,4.0,117.487988
773,26.317584058040044,-2.3667570623629883,26.181399923198956,-1.0927576278108009,4.0,117.487988
774,26.351630091750316,-2.367784749922071,26.215445956909228,-1.3984617293539612,4.0,117.487988
775,26.385676125460588,-2.0495098106930594,26.2494919906195,-1.6643863247453734,4.0,117.487988
776,26.41972215917086,-1.522895933941224,26.283538024329772,-1.7261569245668613,4.0,117.487988
777,26.45376819288113,-0.937152534809295,26.317584058040044,-1.443955926938216,4.0,117.487988
778,26.487814226591404,-0.41395917419370437,26.351630091750316,-0.788497765758361,4.0,117.487988
779,26.521860260301676,-0.003615877193809058,26.385676125460588,0.11494842871042277,4.0,117.487988
780,26.555906294011947,0.31255123659643486,26.41972215917086,1.02147406432093,4.0,117.487988
781,26.589952327722216,0.5788810784598992,26.453768192881128,1.6712183597017622,4.0,117.487988
782,26.623998361432488,0.8154845531571635,26.4878142265914,1.9080326297135395,4.0,117.487988
783,26.65804439514276,0.9989808107702239,26.521860260301672,1.7445819554372235,4.0,117.487988
784,26.69209042885303,1.0849249827623768,26.555906294011944,1.3393747687072803,4.0,117.487988
785,26.726136462563304,1.050344049985709,26.589952327722216,0.904841559832149,4.0,117.487988
786,26.760182496273575,0.9211308597761305,26.623998361432488,0.6026075961077669,4.0,117.487988
787,26.794228529983847,0.7626750027217841,26.65804439514276,0.48149176382639264,4.0,117.487988
788,26.82827456369412,0.6409825414470933,26.69209042885303,0.4821320770473154,4.0,117.487988
789,26.86232059740439,0.5831546161426678,26.726136462563304,0.49330668315876103,4.0,117.487988
790,26.896366631114663,0.5646008706338886,26.760182496273575,0.42153625056603533,4.0,117.487988
791,26.930412664824935,0.5295524268718703,26.794228529983847,0.23647582211673707,4.0,117.487988
792,26.964458698535207,0.42929346509911803,26.82827456369412,-0.025831326519585238,4.0,117.487988
793,26.99850473224548,0.2534431243738219,26.86232059740439,-0.2954321606552645,4.0,117.487988
794,27.03255076595575,0.03602630003637271,26.896366631114663,-0.51391248081555,4.0,117.487988
795,27.066596799666023,-0.16534868839822253,26.930412664824935,-0.6671841942412985,4.0,117.487988
796,27.100642833376295,-0.3019587607182449,26.964458698535207,-0.7887393323750976,4.0,117.487988
797,27.134688867086567,-0.35674331436070855,26.99850473224548,-0.9315327239848648,4.0,117.487988
798,27.16873490079684,-0.3449472276401792,27.03255076595575,-1.1224820181447297,4.0,117.487988
799,27.202780934507107,-0.2964150786147201,27.06659679966602,-1.32489791748222,4.0,117.487988
800,27.23682696821738,-0.2344335348615596,27.10064283337629,-1.4349804645951307,4.0,117.487988
801,27.27087300192765,-0.16536945992311639,27.134688867086563,-1.3242009451588284,4.0,117.487988
802,27.304919035637923,-0.08357048441245693,27.168734900796835,-0.9126407834579437,4.0,117.487988
803,27.338965069348195,0.01483882575568814,27.202780934507107,-0.23331085578189353,4.0,117.487988
804,27.373011103058467,0.12032879112589144,27.23682696821738,0.5561728299008694,4.0,117.487988
805,27.40705713676874,0.20869005175060723,27.27087300192765,1.2313699284277784,4.0,117.487988
806,27.44110317047901,0.2513018531726989,27.304919035637923,1.6017053812470818,4.0,117.487988
807,27.475149204189282,0.2309381750147733,27.338965069348195,1.5978112805993854,4.0,117.487988
808,27.509195237899554,0.1530500337919742,27.373011103058467,1.2958744761509036,4.0,117.487988
809,27.543241271609826,0.044737970976861274,28.22416194581526,0.9997240556483548,-20.0,-587.43994
810,27.577287305320098,-0.05826419316757786,28.258207979525533,0.6059604251593745,-20.0,-587.43994
811,27.61133333903037,-0.12842898729288635,28.292254013235805,0.34585131729660096,-20.0,-587.43994
812,27.645379372740642,-0.1573769571303595,28.326300046946077,0.2246519928222874,-20.0,-587.43994
813,27.679425406450914,-0.15624499683562645,28.36034608065635,0.176904348862922,-20.0,-587.43994
814,27.713471440161186,-0.1480494727434461,28.39439211436662,0.12071072307739614,-20.0,-587.43994
815,27.747517473871458,-0.15839980704759493,28.39439211436662,0.12071072307739614,-19.0,-558.067943
816,27.781563507581726,-0.20822039731742922,28.42843814807689,0.0062971264976702575,-19.0,-558.067943
817,27.815609541291998,-0.30699808273614626,28.46248418178716,-0.1666871303400409,-19.0,-558.067943
818,27.84965557500227,-0.4454861020758359,27.713471440161182,-0.4906305090873412,4.0,117.487988
819,27.883701608712542,-0.5930380102021336,27.747517473871454,-0.6395142553957496,4.0,117.487988
820,27.917747642422814,-0.7069206974330376,27.781563507581726,-0.762009721342421,4.0,117.487988
821,27.951793676133086,-0.7526649278313553,27.815609541291998,-0.899782710534062,4.0,117.487988
822,27.985839709843358,-0.7226378924431716,27.84965557500227,-1.0758043436665736,4.0,117.487988
823,28.01988574355363,-0.6373782068578199,27.883701608712542,-1.256179886532413,4.0,117.487988
824,28.0539317772639,-0.5259298273906072,27.917747642422814,-1.3437646073830751,4.0,117.487988
825,28.087977810974174,-0.39910914644189754,27.951793676133086,-1.2169091770570442,4.0,117.487988
826,28.122023844684445,-0.2380623090844416,27.985839709843358,-0.7994621793280433,4.0,117.487988
827,28.156069878394717,-0.010683735920137181,28.0539317772639,0.6597661381053561,3.0,88.11599100000001
828,28.19011591210499,0.2935947055150026,28.087977810974174,1.3321193762640267,3.0,88.11599100000001
829,28.22416194581526,0.6372199098339654,28.122023844684445,1.7077342052255795,3.0,88.11599100000001
830,28.258207979525533,0.9396623808708804,28.156069878394717,1.716074755367216,3.0,88.11599100000001
831,28.292254013235805,1.115299498141175,28.156069878394717,1.716074755367216,4.0,117.487988
832,28.326300046946077,1.1205393507914103,28.19011591210499,1.4261106006609199,4.0,117.487988
833,28.36034608065635,0.9793491811810202,28.22416194581526,0.9997240556483548,4.0,117.487988
834,28.394392114366617,0.7707376752700432,28.25820797952553,0.6059604251594156,4.0,117.487988
835,28.42843814807689,0.5861377966833001,28.2922540132358,0.3458513172966281,4.0,117.487988
836,28.46248418178716,0.48219727770434606,28.326300046946074,0.22465199282230003,4.0,117.487988
837,28.496530215497433,0.4552212775691687,28.360346080656345,0.176904348862927,4.0,117.487988
838,28.530576249207705,0.4495587140095644,28.394392114366617,0.12071072307740807,4.0,117.487988
839,28.564622282917977,0.39384603562833964,28.42843814807689,0.0062971264976702575,4.0,117.487988
840,28.59866831662825,0.2456290714917017,28.46248418178716,-0.1666871303400409,4.0,117.487988
841,28.63271435033852,0.020650268541421886,28.496530215497433,-0.36669630787366475,4.0,117.487988
842,28.666760384048793,-0.2107259285803914,28.530576249207705,-0.5647241368896372,4.0,117.487988
843,28.700806417759065,-0.3614630327004203,28.564622282917977,-0.7583810618816714,4.0,117.487988
844,28.734852451469337,-0.38133705528803924,28.59866831662825,-0.9662410512550429,4.0,117.487988
845,28.76889848517961,-0.29380549813751267,28.63271435033852,-1.194333190818555,4.0,117.487988
846,28.80294451888988,-0.1889822452309222,28.666760384048793,-1.3990571487504975,4.0,117.487988
847,28.836990552600152,-0.17021743165212258,28.700806417759065,-1.4791946549627155,4.0,117.487988
848,28.871036586310424,-0.2843715856299672,28.76889848517961,-0.8415150674650416,3.0,88.11599100000001
849,28.905082620020696,-0.48378250344907775,28.80294451888988,-0.11010426993688714,3.0,88.11599100000001
850,28.939128653730968,-0.6524142363506054,28.836990552600152,0.7034575648289632,3.0,88.11599100000001
851,28.973174687441237,-0.6846338251366523,28.87103658631042,1.36524819774649,3.0,88.11599100000001
852,29.00722072115151,-0.5635745680720223,28.905082620020693,1.6897483287190331,3.0,88.11599100000001
853,29.04126675486178,-0.3807350163482264,28.939128653730965,1.626149225791236,3.0,88.11599100000001
854,29.075312788572052,-0.2778295930663644,28.973174687441237,1.2732854173811756,3.0,88.11599100000001
855,29.109358822282324,-0.34920572552552276,29.347681058254228,-0.9775878707648626,-7.0,-205.603979
856,29.143404855992596,-0.5733646140417368,29.3817270919645,-1.242812879326603,-7.0,-205.603979
857,29.177450889702868,-0.8204909017390976,27.304919035637923,1.6017053812470818,55.0,1615.459835
858,29.21149692341314,-0.9283220343016245,27.338965069348195,1.5978112805993854,55.0,1615.459835
859,29.245542957123412,-0.7945866228798797,27.373011103058467,1.2958744761509036,55.0,1615.459835
860,29.279588990833684,-0.4300571538838674,27.40705713676874,0.8681396715480304,55.0,1615.459835
861,29.313635024543956,0.05190668562976648,27.44110317047901,0.4921562660083351,55.0,1615.459835
862,29.347681058254228,0.4938193689765334,29.58600329422613,1.0683252594506247,-7.0,-205.603979
863,29.3817270919645,0.7650022437322564,29.620049327936403,1.4586281781038402,-7.0,-205.603979
864,29.41577312567477,0.81325700269353,29.654095361646675,1.4864389562727423,-7.0,-205.603979
865,29.449819159385044,0.6786176068448145,29.688141395356947,1.2080336712935058,-7.0,-205.603979
866,29.483865193095316,0.46517379166902884,29.72218742906722,0.7833306618961332,-7.0,-205.603979
867,29.517911226805587,0.28623309188917867,29.75623346277749,0.3895371365923084,-7.0,-205.603979
868,29.55195726051586,0.2138861421028149,29.790279496487763,0.13951369298879202,-7.0,-205.603979
869,29.586003294226128,0.25917496360330655,29.82432553019803,0.04714184559983282,-7.0,-205.603979
870,29.6200493279364,0.3853389067311225,29.858371563908303,0.047642201033178525,-7.0,-205.603979
871,29.65409536164667,0.5367704758921252,29.892417597618575,0.04799951115347692,-7.0,-205.603979
872,29.688141395356944,0.6649152976468263,29.926463631328847,-0.027497771090231986,-7.0,-205.603979
873,29.722187429067215,0.742108159572103,29.96050966503912,-0.21649228751222363,-7.0,-205.603979
874,29.756233462777487,0.7622470550252014,29.99455569874939,-0.5180215557993311,-7.0,-205.603979
875,29.79027949648776,0.7308293333154555,30.028601732459663,-0.8950263044441666,-7.0,-205.603979
876,29.82432553019803,0.6506408375140991,30.062647766169935,-1.2710535373649106,-7.0,-205.603979
877,29.858371563908303,0.5132523199679057,30.062647766169935,-1.2710535373649106,-6.0,-176.23198200000002
878,29.892417597618575,0.3047655070695504,30.096693799880207,-1.5313566691123888,-6.0,-176.23198200000002
879,29.926463631328847,0.02389542614789657,30.13073983359048,-1.5475683967213871,-6.0,-176.23198200000002
880,29.96050966503912,-0.3020776102426951,30.16478586730075,-1.2313298302806475,-6.0,-176.23198200000002
881,29.99455569874939,-0.619565211286761,30.232877934721294,0.2288017646599814,-7.0,-205.603979
882,30.028601732459663,-0.870967718923756,30.266923968431566,1.0158095989295552,-7.0,-205.603979
883,30.062647766169935,-1.021897801845777,30.300970002141838,1.551520346637532,-7.0,-205.603979
884,30.096693799880207,-1.0749102458540625,30.33501603585211,1.720087609640781,-7.0,-205.603979
885,30.13073983359048,-1.061407637066045,30.369062069562382,1.5475651491069358,-7.0,-205.603979
886,30.164785867300747,-1.0163353120125636,30.40310810327265,1.1709003894785461,-7.0,-205.603979
887,30.19883190101102,-0.9509230499675803,30.437154136982922,0.7582569277546971,-7.0,-205.603979
888,30.23287793472129,-0.8436224933583752,30.471200170693194,0.43033912109535677,-7.0,-205.603979
889,30.266923968431563,-0.6599479295270101,30.505246204403466,0.22279560738286097,-7.0,-205.603979
890,30.300970002141835,-0.3881563421209395,30.539292238113738,0.09808801974043872,-7.0,-205.603979
891,30.335016035852107,-0.060188313323288875,30.57333827182401,-0.013907121471085433,-7.0,-205.603979
892,30.36906206956238,0.26255591645078347,30.607384305534282,-0.17612847361549225,-7.0,-205.603979
893,30.40310810327265,0.5281145775337546,29.245542957123412,-0.17221275168915465,34.0,998.647898
894,30.437154136982922,0.7254616264212926,29.279588990833684,-0.4059673269616156,34.0,998.647898
895,30.471200170693194,0.8835048629611454,29.313635024543956,-0.6825182045817952,34.0,998.647898
896,30.505246204403466,1.038434318596314,29.347681058254228,-0.9775878707648626,34.0,998.647898
897,30.539292238113738,1.1923940745113046,29.3817270919645,-1.242812879326603,34.0,998.647898
898,30.57333827182401,1.2913579851924057,29.41577312567477,-1.393204645317614,34.0,998.647898
899,30.607384305534282,1.2392155503574598,30.845706541506186,-1.24569585408429,-7.0,-205.603979
900,30.641430339244554,0.9464357819524011,30.879752575216457,-0.5352852437575957,-7.0,-205.603979
901,30.675476372954826,0.39243523238028544,30.91379860892673,0.34357095182764263,-7.0,-205.603979
902,30.709522406665098,-0.33258528051589337,30.947844642637,1.1594683921073408,-7.0,-205.603979
903,30.74356844037537,-1.0389350504133452,30.981890676347273,1.6912563484016883,-7.0,-205.603979
904,30.777614474085638,-1.5100893069465746,31.01593671005754,1.8253827206028113,-7.0,-205.603979
905,30.81166050779591,-1.604788812390902,31.049982743767814,1.6007074654939777,-7.0,-205.603979
906,30.845706541506182,-1.328532065594318,30.36906206956238,1.547565149106975,14.0,411.207958
907,30.879752575216454,-0.8272597685292502,30.40310810327265,1.1709003894785461,14.0,411.207958
908,30.913798608926726,-0.3069240652193071,30.437154136982922,0.7582569277546971,14.0,411.207958
909,30.947844642636998,0.06829094834288976,30.471200170693194,0.43033912109535677,14.0,411.207958
910,30.98189067634727,0.23851152727483396,30.505246204403466,0.22279560738286097,14.0,411.207958
911,31.01593671005754,0.24547426695260058,32.78633046299167,0.22708279560477285,-52.0,-1527.343844
912,31.049982743767814,0.1825882597980292,32.82037649670195,0.1445379139621055,-52.0,-1527.343844
913,31.084028777478085,0.1372799600036325,32.854422530412215,-0.03042558807028265,-52.0,-1527.343844
914,31.118074811188357,0.1566715435691785,32.88846856412249,-0.2675553490029251,-52.0,-1527.343844
915,31.15212084489863,0.24328934521415263,32.92251459783276,-0.5091258014954171,-52.0,-1527.343844
916,31.1861668786089,0.36836890617497076,31.424489114580805,-1.0428581248046378,-7.0,-205.603979
917,31.220212912319173,0.4884041797495232,31.458535148291077,-1.3018195332274267,-7.0,-205.603979
918,31.254258946029445,0.5599732111816003,31.49258118200135,-1.55589780081009,-7.0,-205.603979
919,31.288304979739717,0.5539908204224009,31.49258118200135,-1.55589780081009,-6.0,-176.23198200000002
920,31.32235101344999,0.46755320896186314,31.52662721571162,-1.7241965953033815,-6.0,-176.23198200000002
921,31.356397047160257,0.32650404942669387,31.186166878608898,0.2419225438595626,5.0,146.859985
922,31.39044308087053,0.17376762616382874,31.22021291231917,0.1468588386793977,5.0,146.859985
923,31.4244891145808,0.04756956409004963,31.25425894602944,0.04878032828418015,5.0,146.859985
924,31.458535148291073,-0.038209607194604416,32.41182409217868,-0.8954927185982133,-28.0,-822.415916
925,31.492581182001345,-0.09946541885447446,32.44587012588895,-0.038202752967180315,-28.0,-822.415916
926,31.526627215711617,-0.16926543802042046,32.47991615959923,0.9046590948171715,-28.0,-822.415916
927,31.56067324942189,-0.2739952749453401,32.513962193309496,1.658714277163383,-28.0,-822.415916
928,31.59471928313216,-0.4119621062307375,32.54800822701977,2.012687599461644,-28.0,-822.415916
929,31.628765316842433,-0.5476214621842318,32.58205426073004,1.9173693067356088,-28.0,-822.415916
930,31.662811350552705,-0.6263370796500728,32.616100294440315,1.498348445048234,-28.0,-822.415916
931,31.696857384262977,-0.6026071531599871,32.65014632815058,0.9781700661415679,-28.0,-822.415916
932,31.73090341797325,-0.4657242729645913,31.93517962023488,0.41018141553048215,-6.0,-176.23198200000002
933,31.76494945168352,-0.24749721147249695,31.969225653945152,0.33932368642801386,-6.0,-176.23198200000002
934,31.798995485393792,-0.008029830848866444,32.00327168765542,0.2671225483323702,-6.0,-176.23198200000002
935,31.833041519104064,0.19126124157810348,32.037317721365696,0.11666531648097035,-6.0,-176.23198200000002
936,31.867087552814336,0.31364725784233166,32.071363755075964,-0.12002056751343797,-6.0,-176.23198200000002
937,31.901133586524608,0.36112543957775123,32.10540978878624,-0.3923171274474921,-6.0,-176.23198200000002
938,31.93517962023488,0.36878321906582007,32.13945582249651,-0.6365615146028655,-6.0,-176.23198200000002
939,31.96922565394515,0.3785550640068035,32.17350185620678,-0.8239227429515785,-6.0,-176.23198200000002
940,32.00327168765542,0.4062416067583337,32.20754788991705,-0.9783636222897005,-6.0,-176.23198200000002
941,32.037317721365696,0.4267275990224942,32.24159392362733,-1.1514292120951048,-6.0,-176.23198200000002
942,32.071363755075964,0.39241971360842015,32.58205426073004,1.9173693067356088,-15.0,-440.579955
943,32.10540978878624,0.27298398830659104,32.616100294440315,1.498348445048234,-15.0,-440.579955
944,32.13945582249651,0.08547569708934467,31.901133586524605,0.5868328350561658,7.0,205.603979
945,32.173501856206784,-0.10903918391567673,31.93517962023488,0.41018141553048215,7.0,205.603979
946,32.20754788991705,-0.24047265216030383,31.96922565394515,0.3393236864280214,7.0,205.603979
947,32.24159392362733,-0.27187846337230115,32.00327168765543,0.2671225483323388,7.0,205.603979
948,32.275639957337596,-0.22096592313931251,32.037317721365696,0.11666531648097035,7.0,205.603979
949,32.309685991047864,-0.14870301740140465,31.594719283132157,-1.3008836775963224,21.0,616.8119370000001
950,32.34373202475814,-0.12436307704707533,31.628765316842433,-0.5799386023720934,21.0,616.8119370000001
951,32.37777805846841,-0.18877575934971394,30.845706541506182,-1.2456958540843641,45.0,1321.739865
952,32.41182409217868,-0.33467501406724137,30.879752575216457,-0.5352852437575957,45.0,1321.739865
953,32.44587012588895,-0.5111165529441852,30.913798608926726,0.3435709518275575,45.0,1321.739865
954,32.47991615959923,-0.6473303377781278,30.947844642637,1.1594683921073408,45.0,1321.739865
955,32.513962193309496,-0.6840804499999726,30.98189067634727,1.6912563484016743,45.0,1321.739865
956,32.54800822701977,-0.598445695496246,31.015936710057545,1.8253827206027877,45.0,1321.739865
957,32.58205426073004,-0.4119426598684618,31.049982743767814,1.6007074654939777,45.0,1321.739865
958,32.616100294440315,-0.1803034039968617,31.08402877747809,1.175470684005231,45.0,1321.739865
959,32.65014632815058,0.029464909007938238,31.935179620234877,0.4101814155305006,21.0,616.8119370000001
960,32.68419236186086,0.16616119273575883,31.969225653945152,0.33932368642801386,21.0,616.8119370000001
961,32.71823839557113,0.21660628584665553,32.00327168765542,0.2671225483323702,21.0,616.8119370000001
962,32.7522844292814,0.21362198769899596,32.037317721365696,0.11666531648097035,21.0,616.8119370000001
963,32.78633046299167,0.22217974419455158,31.254258946029445,0.04878032828416993,45.0,1321.739865
964,32.82037649670195,0.3050210239676295,32.88846856412249,-0.2675553490029251,-2.0,-58.743994
965,32.854422530412215,0.484084756315375,32.88846856412248,-0.2675553490028747,-1.0,-29.371997
966,32.88846856412248,0.7226676727162036,32.92251459783275,-0.5091258014953667,-1.0,-29.371997
967,32.92251459783276,0.9427617286790972,32.68419236186086,0.5581049500179868,7.0,205.603979
968,32.95656063154303,1.0679491067864242,32.71823839557113,0.3288889855847006,7.0,205.603979
969,32.9906066652533,1.064678349991843,33.02465269896357,-1.1161453494364328,-1.0,-29.371997
970,33.02465269896357,0.9563400154286802,33.05869873267384,-1.3414309541484868,-1.0,-29.371997
971,33.05869873267385,0.8014251206164963,33.092744766384115,-1.5242098474812567,-1.0,-29.371997
972,33.092744766384115,0.6482140336833057,33.12679080009438,-1.5377748691339361,-1.0,-29.371997
973,33.12679080009439,0.49416116513712305,33.16083683380466,-1.2542956531613079,-1.0,-29.371997
974,33.16083683380466,0.2799354720850109,33.19488286751493,-0.634086609228277,-1.0,-29.371997
975,33.194882867514934,-0.07002888311354634,33.2289289012252,0.2162445147608473,-1.0,-29.371997
976,33.2289289012252,-0.581300134841914,33.26297493493547,1.0643558885438928,-1.0,-29.371997
977,33.26297493493548,-1.1833409905525714,33.29702096864575,1.651943394009565,-1.0,-29.371997
978,33.29702096864575,-1.7219116020522087,33.331067002356015,1.8198317110219404,-1.0,-29.371997
979,33.33106700235602,-2.0284397889280408,33.36511303606629,1.5831333049186962,-1.0,-29.371997
980,33.36511303606629,-2.0034121610210676,33.39915906977656,1.1112947384359195,-1.0,-29.371997
981,33.399159069776566,-1.6621960065469783,33.433205103486834,0.6288581332719339,-1.0,-29.371997
982,33.433205103486834,-1.1204152444852709,33.50129717090738,0.16900558147436617,-2.0,-58.743994
983,33.4672511371971,-0.5362135044184827,33.53534320461765,0.16542047418348113,-2.0,-58.743994
984,33.50129717090738,-0.04820502343422654,33.56938923832792,0.17769724948466153,-2.0,-58.743994
985,33.53534320461765,0.2611447779206211,33.60343527203819,0.11612980711904622,-2.0,-58.743994
986,33.56938923832792,0.373432943273991,33.637481305748466,-0.05569968885422003,-2.0,-58.743994
987,33.60343527203819,0.32828024630942926,33.63748130574846,-0.055699688854184165,-1.0,-29.371997
988,33.637481305748466,0.2135887309070253,33.671527339458734,-0.3297190363985783,-1.0,-29.371997
989,33.671527339458734,0.14615664961316133,33.705573373169,-0.6760420038031493,-1.0,-29.371997
990,33.70557337316901,0.23235014376729884,33.73961940687928,-1.051675134308509,-1.0,-29.371997
991,33.73961940687928,0.5160512550071737,33.77366544058955,-1.3894660389887945,-1.0,-29.371997
992,33.773665440589554,0.9429060596437707,33.80771147429982,-1.587739597190732,-1.0,-29.371997
993,33.80771147429982,1.369410638169629,33.84175750801009,-1.5284697037924722,-1.0,-29.371997
994,33.8417575080101,1.619768917663537,33.875803541720366,-1.1317528508910077,-1.0,-29.371997
995,33.875803541720366,1.565010771478548,33.909849575430634,-0.4202914154612555,-1.0,-29.371997
996,33.90984957543064,1.1866927459536663,33.94389560914091,0.45280010346034105,-1.0,-29.371997
997,33.94389560914091,0.5935832308361745,33.97794164285118,1.2453784529032756,-1.0,-29.371997
998,33.977941642851185,-0.02112110736406201,34.01198767656145,1.7257514558070655,-1.0,-29.371997
999,34.01198767656145,-0.4667472027109001,34.04603371027172,1.777170124548814,-1.0,-29.371997
1000,34.04603371027172,-0.6439498639050912,34.08007974398199,1.4467755204379347,-1.0,-29.371997
1001,34.080079743982,-0.5854175268571487,34.14817181140254,0.38861414708406833,-2.0,-58.743994
1002,34.114125777692266,-0.4235666989700396,34.18221784511281,0.031636264737086965,-2.0,-58.743994
1003,34.14817181140254,-0.30494730577260837,34.216263878823085,-0.11640461076889888,-2.0,-58.743994
1004,34.18221784511281,-0.3034165992563354,34.25030991253335,-0.11873171053712163,-2.0,-58.743994
1005,34.216263878823085,-0.38385205427910446,34.28435594624363,-0.09396216215708561,-2.0,-58.743994
1006,34.25030991253335,-0.437519543731928,34.3184019799539,-0.1561886149034352,-2.0,-58.743994
1007,34.28435594624363,-0.3649555227292256,34.35244801366417,-0.3702751885115123,-2.0,-58.743994
1008,34.3184019799539,-0.14950239381061628,34.38649404737444,-0.7297028868636347,-2.0,-58.743994
1009,34.35244801366417,0.12746287592676384,34.42054008108472,-1.1538088944001665,-2.0,-58.743994
1010,34.38649404737444,0.3333761831061727,34.454586114794985,-1.5033332903038317,-2.0,-58.743994
1011,34.42054008108472,0.3558784661741703,34.48863214850526,-1.6186337038593632,-2.0,-58.743994
1012,34.454586114794985,0.15675282553169542,34.52267818221553,-1.3801124364790058,-2.0,-58.743994
1013,34.48863214850526,-0.211729140545575,34.556724215925804,-0.7725375123687224,-2.0,-58.743994
1014,34.52267818221553,-0.6280444638715534,35.237644890131236,-0.1427571738791762,-21.0,-616.8119370000001
1015,34.556724215925804,-0.9494703524218155,35.27169092384151,0.7455998277981061,-21.0,-616.8119370000001
1016,34.59077024963607,-1.0677536013570526,35.30573695755178,1.453946423047596,-21.0,-616.8119370000001
1017,34.62481628334635,-0.9486380225711121,35.339782991262055,1.782155024724185,-21.0,-616.8119370000001
1018,34.65886231705662,-0.6383952292526985,35.37382902497232,1.67714117959222,-21.0,-616.8119370000001
1019,34.692908350766885,-0.23691300991497008,35.40787505868259,1.2458972259852397,-21.0,-616.8119370000001
1020,34.72695438447716,0.14739811943075895,35.44192109239287,0.692177071214482,-21.0,-616.8119370000001
1021,34.76100041818743,0.4380457969781334,35.475967126103136,0.21638473485908408,-21.0,-616.8119370000001
1022,34.795046451897704,0.6070673192791675,35.51001315981341,-0.06676959861103578,-21.0,-616.8119370000001
1023,34.82909248560797,0.663906641338838,35.54405919352368,-0.157003033599622,-21.0,-616.8119370000001
1024,34.86313851931825,0.6315312262015507,35.578105227233955,-0.14226382343049768,-21.0,-616.8119370000001
1025,34.89718455302852,0.5313917845174649,35.61215126094422,-0.1425195032207627,-21.0,-616.8119370000001
1026,34.93123058673879,0.38600880038330954,33.46725113719711,0.3008200593251676,43.0,1262.995871
1027,34.96527662044906,0.22838760418860934,33.50129717090738,0.16900558147436617,43.0,1262.995871
1028,34.999322654159336,0.10054086419391428,33.535343204617654,0.16542047418348368,43.0,1262.995871
1029,35.033368687869604,0.03473088572243763,33.56938923832792,0.17769724948466153,43.0,1262.995871
1030,35.06741472157988,0.029336104798037405,33.6034352720382,0.11612980711901036,43.0,1262.995871
1031,35.10146075529015,0.04074064587944586,33.637481305748466,-0.05569968885422003,43.0,1262.995871
1032,35.135506789000424,0.005007649851640836,33.977941642851185,1.245378452903441,34.0,998.647898
1033,35.16955282271069,-0.11777430464647105,34.01198767656145,1.7257514558070655,34.0,998.647898
1034,35.20359885642097,-0.303613745135958,34.04603371027173,1.777170124548745,34.0,998.647898
1035,35.237644890131236,-0.4601212299621001,34.080079743982,1.4467755204378658,34.0,998.647898
1036,35.271690923841504,-0.4700029197080563,34.114125777692266,0.9121529577512998,34.0,998.647898
1037,35.30573695755178,-0.26387373076550225,34.52267818221553,-1.3801124364790058,23.0,675.555931
1038,35.33978299126205,0.1208981879575987,34.5567242159258,-0.7725375123688492,23.0,675.555931
1039,35.37382902497232,0.5379895616375466,34.59077024963607,0.08171037418889955,23.0,675.555931
1040,35.40787505868259,0.7985538285051155,34.59077024963607,0.08171037418889955,24.0,704.9279280000001
1041,35.44192109239287,0.7736082010223198,34.62481628334635,0.9507469229252667,24.0,704.9279280000001
1042,35.475967126103136,0.471385675048385,34.65886231705662,1.5813804848879405,24.0,704.9279280000001
1043,35.51001315981341,0.03964524330886779,35.6461972946545,-0.25371463454664245,-4.0,-117.487988
1044,35.54405919352368,-0.31147390729086327,35.68024332836477,-0.5106559068755386,-4.0,-117.487988
1045,35.578105227233955,-0.42139237853253675,35.71428936207504,-0.8732668009857443,-4.0,-117.487988
1046,35.61215126094422,-0.26189133538622283,35.74833539578531,-1.23432798091897,-4.0,-117.487988
1047,35.6461972946545,0.05316598527090383,35.78238142949559,-1.4483328856082016,-4.0,-117.487988
1048,35.68024332836477,0.33289609105885715,35.816427463205855,-1.3811289289870285,-4.0,-117.487988
1049,35.71428936207504,0.4117047572926314,34.93123058673879,-0.11048856795391439,23.0,675.555931
1050,35.74833539578531,0.23357552004370277,35.237644890131236,-0.1427571738791762,15.0,440.579955
1051,35.78238142949559,-0.12544132834123742,35.27169092384151,0.7455998277981061,15.0,440.579955
1052,35.816427463205855,-0.5053775450639109,35.30573695755178,1.453946423047596,15.0,440.579955
1053,35.85047349691612,-0.7507041341993329,35.98665763175721,1.6004388593784151,-4.0,-117.487988
1054,35.8845195306264,-0.7873810591267016,36.02070366546749,1.578589017848852,-4.0,-117.487988
1055,35.91856556433667,-0.6463015645436475,36.054749699177755,1.2370746434548658,-4.0,-117.487988
1056,35.95261159804694,-0.42479651374292354,36.08879573288803,0.750363320575841,-4.0,-117.487988
1057,35.98665763175721,-0.21586494114513138,36.1228417665983,0.3044758614889645,-4.0,-117.487988
1058,36.02070366546749,-0.052678684621054885,36.156887800308574,0.016706436421659906,-4.0,-117.487988
1059,36.054749699177755,0.09792645405776727,36.19093383401884,-0.09761020680560663,-4.0,-117.487988
1060,36.08879573288803,0.2944514949937901,36.22497986772912,-0.10633978515649493,-4.0,-117.487988
1061,36.1228417665983,0.5643537198226999,36.25902590143939,-0.11230571859892494,-4.0,-117.487988
1062,36.156887800308574,0.8695883563934602,36.29307193514966,-0.20442176579273574,-4.0,-117.487988
1063,36.19093383401884,1.112460265385664,36.73567037338319,0.9193991306198478,-16.0,-469.951952
1064,36.22497986772912,1.1758750762881283,36.76971640709347,0.4408770261325935,-16.0,-469.951952
1065,36.25902590143939,0.9772975101318604,36.80376244080374,0.0774204940575944,-16.0,-469.951952
1066,36.29307193514966,0.5118959282162682,36.83780847451401,-0.12513289906737907,-16.0,-469.951952
1067,36.32711796885993,-0.13534928185233608,36.87185450822428,-0.2054153813710902,-16.0,-469.951952
1068,36.361164002570206,-0.8160251356476267,36.90590054193456,-0.24268415309212035,-16.0,-469.951952
1069,36.395210036280474,-1.3714543063169753,36.939946575644825,-0.30997146430062683,-16.0,-469.951952
1070,36.42925606999075,-1.686440415449192,36.9739926093551,-0.4485399858209995,-16.0,-469.951952
1071,36.46330210370102,-1.720027763646926,37.00803864306537,-0.6658854726641065,-16.0,-469.951952
1072,36.49734813741129,-1.5071568338333543,37.04208467677564,-0.9422207567230374,-16.0,-469.951952
1073,36.53139417112156,-1.1394199284637667,37.07613071048591,-1.230442962240391,-16.0,-469.951952
1074,36.56544020483183,-0.7331863146100089,37.11017674419618,-1.4502855089585254,-16.0,-469.951952
1075,36.599486238542106,-0.3888757617302524,37.14422277790646,-1.4936393891649342,-16.0,-469.951952
1076,36.633532272252374,-0.15078729064413338,37.178268811616725,-1.2578472534905436,-16.0,-469.951952
1077,36.66757830596265,0.011064213794372564,37.62086724985026,0.2927764620510709,-28.0,-822.415916
1078,36.70162433967292,0.1779983754632649,37.654913283560525,0.05194069441450723,-28.0,-822.415916
1079,36.73567037338319,0.42610742291720904,37.6889593172708,-0.3138275858049342,-28.0,-822.415916
1080,36.76971640709346,0.77297148433303,37.72300535098107,-0.7239614311434862,-28.0,-822.415916
1081,36.80376244080374,1.1647495857156316,37.757051384691344,-1.0717169071621329,-28.0,-822.415916
1082,36.837808474514006,1.508964120185925,37.79109741840161,-1.2743556587558704,-28.0,-822.415916
1083,36.87185450822428,1.7251814847556435,37.82514345211189,-1.3113886260943144,-28.0,-822.415916
1084,36.90590054193455,1.7794899058728313,37.85918948582216,-1.2354428614252648,-28.0,-822.415916
1085,36.939946575644825,1.6872582044713862,37.89323551953243,-1.148581326763301,-28.0,-822.415916
1086,36.97399260935509,1.4906925864173637,37.9272815532427,-1.1491024391401632,-28.0,-822.415916
1087,37.00803864306537,1.228227365791179,37.961327586952976,-1.2693033318404028,-28.0,-822.415916
1088,37.04208467677564,0.9121824038296319,37.995373620663244,-1.4366679219697034,-28.0,-822.415916
1089,37.076130710485906,0.5256947667297892,38.02941965437351,-1.4885036732607597,-28.0,-822.415916
1090,37.11017674419618,0.042466614309209665,38.06346568808379,-1.2466827613901093,-28.0,-822.415916
1091,37.14422277790645,-0.5376063620908407,38.097511721794056,-0.6221451959554737,-28.0,-822.415916
1092,37.178268811616725,-1.1559386712339084,38.13155775550433,0.3094761734906603,-28.0,-822.415916
1093,37.21231484532699,-1.6906194993723358,38.1656037892146,1.31443623205968,-28.0,-822.415916
1094,37.24636087903727,-1.9945092395780255,38.199649822924876,2.098233831072581,-28.0,-822.415916
1095,37.28040691274754,-1.9657378197192426,38.233695856635144,2.443829174508185,-28.0,-822.415916
1096,37.31445294645781,-1.6135231348309624,38.26774189034542,2.3111044528670477,-28.0,-822.415916
1097,37.34849898016808,-1.0741336686282086,38.30178792405569,1.8412209866351517,-28.0,-822.415916
1098,37.38254501387836,-0.5549093456778807,38.33583395776596,1.2693387513973395,-28.0,-822.415916
1099,37.416591047588625,-0.23016999177877834,38.36987999147623,0.802475865515194,-28.0,-822.415916
1100,37.4506370812989,-0.15132650410319512,38.40392602518651,0.5320201931907685,-28.0,-822.415916
1101,37.48468311500917,-0.2306409833117284,38.437972058896776,0.4206712274133946,-28.0,-822.415916
1102,37.518729148719444,-0.3088671687286682,38.47201809260705,0.3565284103902104,-28.0,-822.415916
1103,37.55277518242971,-0.2591915640219091,38.50606412631732,0.23287851953026198,-28.0,-822.415916
1104,37.58682121613999,-0.05960882210525255,38.540110160027595,0.007046862502794595,-28.0,-822.415916
1105,37.62086724985026,0.20704844668559286,38.57415619373786,-0.28815134557893324,-28.0,-822.415916
1106,37.654913283560525,0.4172981569430581,38.60820222744813,-0.5774053522263118,-28.0,-822.415916
1107,37.6889593172708,0.48880364443272356,38.64224826115841,-0.7952592917319238,-28.0,-822.415916
1108,37.72300535098107,0.4269119083871171,38.676294294868676,-0.9265336504334695,-28.0,-822.415916
1109,37.757051384691344,0.31122026242176204,38.71034032857895,-1.0128265987893623,-28.0,-822.415916
1110,37.79109741840161,0.23890754334206424,38.74438636228922,-1.1215776741941554,-28.0,-822.415916
1111,37.82514345211189,0.2664048911896806,39.62958323875629,-1.2419802278894776,-53.0,-1556.715841
1112,37.85918948582216,0.38413661702274043,38.81247842970976,-1.498933213894349,-28.0,-822.415916
1113,37.89323551953243,0.531279385182144,38.84652446342004,-1.6279593724340489,-28.0,-822.415916
1114,37.9272815532427,0.6332444219795735,38.88057049713031,-1.5353107657981921,-28.0,-822.415916
1115,37.961327586952976,0.6383623596689408,38.91461653084058,-1.1181582440360478,-28.0,-822.415916
1116,37.995373620663244,0.5379992688528699,38.94866256455085,-0.3903617175839306,-28.0,-822.415916
1117,38.02941965437352,0.36567419597390943,38.199649822924876,2.098233831072581,-5.0,-146.859985
1118,38.06346568808379,0.17951080112173357,38.233695856635144,2.443829174508185,-5.0,-146.859985
1119,38.09751172179406,0.03663264176324086,38.26774189034542,2.3111044528670477,-5.0,-146.859985
1120,38.13155775550433,-0.030904608347622545,38.30178792405569,1.8412209866351517,-5.0,-146.859985
1121,38.16560378921461,-0.029128982242761867,38.33583395776596,1.2693387513973395,-5.0,-146.859985
1122,38.199649822924876,0.0029763636553007114,38.36987999147623,0.802475865515194,-5.0,-146.859985
1123,38.233695856635144,0.015952129995971984,38.4039260251865,0.532020193190825,-5.0,-146.859985
1124,38.26774189034542,-0.021699058878845497,38.437972058896776,0.4206712274133946,-5.0,-146.859985
1125,38.30178792405569,-0.10545778026493922,38.472018092607044,0.35652841039022376,-5.0,-146.859985
1126,38.33583395776596,-0.19812770336471142,38.50606412631732,0.23287851953026198,-5.0,-146.859985
1127,38.36987999147623,-0.2532602319380444,38.50606412631732,0.23287851953026198,-4.0,-117.487988
1128,38.40392602518651,-0.24494256936359057,38.540110160027595,0.007046862502794595,-4.0,-117.487988
1129,38.437972058896776,-0.18479383727200746,38.57415619373786,-0.28815134557893324,-4.0,-117.487988
1130,38.47201809260705,-0.11397133540256359,38.60820222744814,-0.5774053522263721,-4.0,-117.487988
1131,38.50606412631732,-0.07529351071670558,38.64224826115841,-0.7952592917319238,-4.0,-117.487988
1132,38.540110160027595,-0.08591132031412602,38.67629429486868,-0.9265336504334969,-4.0,-117.487988
1133,38.57415619373786,-0.1308176487924182,38.71034032857895,-1.0128265987893623,-4.0,-117.487988
1134,38.60820222744814,-0.18017816814654103,38.74438636228923,-1.121577674194178,-4.0,-117.487988
1135,38.64224826115841,-0.2130704286365287,38.778432395999495,-1.2937136006201049,-4.0,-117.487988
1136,38.67629429486868,-0.22651754025273144,38.81247842970977,-1.4989332138943918,-4.0,-117.487988
1137,38.71034032857895,-0.22643073411833653,38.84652446342004,-1.6279593724340489,-4.0,-117.487988
1138,38.74438636228923,-0.2165341961647314,38.880570497130314,-1.535310765798105,-4.0,-117.487988
1139,38.778432395999495,-0.2001222966264035,38.91461653084058,-1.1181582440360478,-4.0,-117.487988
1140,38.81247842970977,-0.1904436920431295,38.94866256455086,-0.39036171758374577,-4.0,-117.487988
1141,38.84652446342004,-0.21212102146680412,38.98270859826113,0.4953913046732002,-4.0,-117.487988
1142,38.88057049713031,-0.2837627771847316,39.016754631971395,1.2999004029557253,-4.0,-117.487988
1143,38.91461653084058,-0.3926670360149095,39.05080066568167,1.8022121406013378,-4.0,-117.487988
1144,38.94866256455085,-0.48522054437696965,39.08484669939194,1.8996150204404139,-4.0,-117.487988
1145,38.98270859826113,-0.48823961606899413,39.118892733102214,1.6464997167904805,-4.0,-117.487988
1146,39.016754631971395,-0.3526754163709704,39.15293876681248,1.2133236430663827,-4.0,-117.487988
1147,39.05080066568167,-0.09055083438381148,39.18698480052276,0.7943258991184623,-4.0,-117.487988
1148,39.08484669939194,0.2234572807875029,39.22103083423303,0.5179345063793979,-4.0,-117.487988
1149,39.118892733102214,0.49019595926738263,39.2550768679433,0.40445038343392686,-4.0,-117.487988
1150,39.15293876681248,0.6388230692172393,39.28912290165357,0.38342741390662544,-4.0,-117.487988
1151,39.18698480052276,0.6592551608910527,39.323168935363846,0.35075640622864035,-4.0,-117.487988
1152,39.22103083423303,0.5967949779797123,39.357214969074114,0.2298981200133725,-4.0,-117.487988
1153,39.2550768679433,0.5188602165780585,39.39126100278439,0.006875829502389159,-4.0,-117.487988
1154,39.28912290165357,0.47818433404872357,37.757051384691344,-1.0717169071621329,45.0,1321.739865
1155,39.323168935363846,0.4916629621830973,37.79109741840162,-1.2743556587558782,45.0,1321.739865
1156,39.357214969074114,0.5399286417616094,38.36987999147623,0.802475865515194,29.0,851.787913
1157,39.39126100278439,0.5828445600216546,38.40392602518651,0.5320201931907685,29.0,851.787913
1158,39.42530703649466,0.5831090177759525,38.437972058896776,0.4206712274133946,29.0,851.787913
1159,39.459353070204926,0.5282641133540125,38.472018092607044,0.35652841039022376,29.0,851.787913
1160,39.4933991039152,0.43853799111297354,38.50606412631732,0.23287851953026198,29.0,851.787913
1161,39.52744513762547,0.3508514059019403,38.54011016002759,0.0070468625028417275,29.0,851.787913
1162,39.561491171335746,0.28383767685003874,38.57415619373786,-0.28815134557893324,29.0,851.787913
1163,39.595537205046014,0.20790743944680568,38.60820222744813,-0.5774053522263118,29.0,851.787913
1164,39.62958323875629,0.0497522226742672,38.64224826115841,-0.7952592917319238,29.0,851.787913
1165,39.66362927246656,-0.2605390787805866,38.676294294868676,-0.9265336504334695,29.0,851.787913
1166,39.69767530617683,-0.7274109685355313,38.71034032857895,-1.0128265987893623,29.0,851.787913
1167,39.7317213398871,-1.259105295243874,38.74438636228922,-1.1215776741941554,29.0,851.787913
1168,39.76576737359738,-1.695934072035256,38.778432395999495,-1.2937136006201049,29.0,851.787913
1169,39.799813407307646,-1.8837352241911094,38.81247842970976,-1.498933213894349,29.0,851.787913
1170,39.83385944101792,-1.7483958231637275,38.84652446342004,-1.6279593724340489,29.0,851.787913
1171,39.86790547472819,-1.3291755517890307,38.88057049713031,-1.5353107657981921,29.0,851.787913
1172,39.901951508438465,-0.7559543965607372,38.91461653084058,-1.1181582440360478,29.0,851.787913
1173,39.93599754214873,-0.18727929950592156,39.799813407307646,-0.3864734307724958,4.0,117.487988
1174,39.97004357585901,0.255371283880646,39.83385944101792,0.5264378439363573,4.0,117.487988
1175,40.00408960956928,0.5240324061056957,39.86790547472819,1.381054264070374,4.0,117.487988
1176,40.038135643279546,0.6390114658304193,39.90195150843846,1.9421801453934742,4.0,117.487988
1177,40.07218167698982,0.6552347133025325,39.93599754214873,2.0839683969566747,4.0,117.487988
1178,40.10622771070009,0.6266041119291942,39.970043575859,1.8409756358646858,4.0,117.487988
1179,40.140273744410365,0.5878930144855509,40.00408960956928,1.379018114125713,4.0,117.487988
1180,40.17431977812063,0.5559751795968855,40.038135643279546,0.9061186773313987,4.0,117.487988
1181,40.20836581183091,0.5393962776370438,40.07218167698982,0.5752302755535981,4.0,117.487988
1182,40.24241184554118,0.5445852312700911,40.10622771070009,0.4285086571093213,4.0,117.487988
1183,40.27645787925145,0.5739342943038616,40.140273744410365,0.40383766013419786,4.0,117.487988
1184,40.31050391296172,0.6184363204571065,40.17431977812063,0.3893826743153268,4.0,117.487988
1185,40.344549946672,0.6521929062904089,40.20836581183091,0.29097764735119286,4.0,117.487988
1186,40.378595980382265,0.6366505688826095,40.24241184554118,0.07771542584297429,4.0,117.487988
1187,40.41264201409254,0.5373216158147501,40.27645787925145,-0.21206916216612565,4.0,117.487988
1188,40.44668804780281,0.3456878698458576,40.31050391296172,-0.5008203063783399,4.0,117.487988
1189,40.480734081513084,0.09083202834055075,40.344549946672,-0.7185437613812878,4.0,117.487988
1190,40.51478011522335,-0.17136554935130804,40.378595980382265,-0.8420372806866397,4.0,117.487988
1191,40.54882614893363,-0.38764846955608734,40.41264201409254,-0.9071898131424412,4.0,117.487988
1192,40.5828721826439,-0.5352512447679437,40.44668804780281,-0.9867574257954368,4.0,117.487988
1193,40.616918216354165,-0.6269865689911035,40.48073408151308,-1.1413376995981723,4.0,117.487988
1194,40.65096425006444,-0.689501354988637,40.51478011522335,-1.366318439121254,4.0,117.487988
1195,40.68501028377471,-0.7321685258560259,40.54882614893362,-1.566102493906342,4.0,117.487988
1196,40.719056317484984,-0.7321618202138618,40.5828721826439,-1.5805871337303283,4.0,117.487988
1197,40.75310235119525,-0.6493912689997998,40.616918216354165,-1.2636604017241184,4.0,117.487988
1198,40.78714838490553,-0.46142305055917404,40.65096425006444,-0.5783155788159813,4.0,117.487988
1199,40.8211944186158,-0.19088612073362368,40.68501028377471,0.34923462598683414,4.0,117.487988
1200,40.85524045232607,0.09774608026646207,40.719056317484984,1.260808718355534,4.0,117.487988
1201,40.88928648603634,0.3303724385962374,40.75310235119525,1.878185839205561,4.0,117.487988
1202,40.923332519746616,0.4602772359659627,40.78714838490553,2.036367044942293,4.0,117.487988
1203,40.957378553456884,0.48537623106453875,40.8211944186158,1.7596854076083255,4.0,117.487988
1204,40.99142458716716,0.43925044962708754,40.85524045232607,1.2362513491979956,4.0,117.487988
1205,41.02547062087743,0.36734195304336353,40.88928648603634,0.7100468774041517,4.0,117.487988
1206,41.0595166545877,0.3045394311337344,40.923332519746616,0.35809050907046935,4.0,117.487988
1207,41.09356268829797,0.2635677978533363,40.957378553456884,0.22162540942858663,4.0,117.487988
1208,41.12760872200825,0.2345335008559085,41.2978388905596,-1.379596828325823,-5.0,-146.859985
1209,41.161654755718516,0.19194638258330637,41.33188492426987,-1.5442738436379868,-5.0,-146.859985
1210,41.19570078942879,0.10614146442676001,41.36593095798015,-1.510461672785637,-5.0,-146.859985
1211,41.22974682313906,-0.04315976213326562,41.399976991690416,-1.1584541839745308,-5.0,-146.859985
1212,41.26379285684933,-0.2544920584035776,41.434023025400684,-0.4696141102272212,-5.0,-146.859985
1213,41.2978388905596,-0.49811926219067176,41.46806905911096,0.42664386052808456,-5.0,-146.859985
1214,41.33188492426987,-0.7189720775302406,41.50211509282123,1.2863747365021725,-5.0,-146.859985
1215,41.36593095798015,-0.8499132159306029,41.5361611265315,1.8566801492615623,-5.0,-146.859985
1216,41.399976991690416,-0.8337091274361013,41.57020716024177,1.99483299868986,-5.0,-146.859985
1217,41.43402302540069,-0.6487148293635955,41.60425319395205,1.7298735689206874,-5.0,-146.859985
1218,41.46806905911096,-0.327328759555136,41.33188492426987,-1.5442738436379868,4.0,117.487988
1219,41.502115092821235,0.0467150098253168,41.36593095798015,-1.510461672785637,4.0,117.487988
1220,41.5361611265315,0.3678548069423948,41.399976991690416,-1.1584541839745308,4.0,117.487988
1221,41.57020716024178,0.5535809460280315,41.46806905911097,0.426643860528264,3.0,88.11599100000001
1222,41.60425319395205,0.5812173880531076,41.502115092821235,1.286374736502352,3.0,88.11599100000001
1223,41.63829922766232,0.4959822898223574,41.53616112653151,1.8566801492615912,3.0,88.11599100000001
1224,41.67234526137259,0.3847042655977406,41.84257542992395,-0.07205006269749689,-5.0,-146.859985
