frame_idx,t_rppg,rppg_n,t_gt_pair,ppg_n_pair,lag_samples,lag_frames
0,0.0,-0.13392322068434823,1.3781201775247354,-0.6899823805063203,-41.0,-1219.777511
1,0.033612687256700864,-0.12360344528771411,1.4117328647814362,0.13034677086327975,-41.0,-1219.777511
2,0.06722537451340173,-0.14022903617890392,1.445345552038137,1.0013143771072675,-41.0,-1219.777511
3,0.1008380617701026,-0.18952666094412485,1.478958239294838,1.6752123991171681,-41.0,-1219.777511
4,0.13445074902680346,-0.24185457133180313,1.5125709265515388,1.9683594483569289,-41.0,-1219.777511
5,0.1680634362835043,-0.2408755460244112,1.5461836138082397,1.8387886680866246,-41.0,-1219.777511
6,0.2016761235402052,-0.13669058719104854,1.5797963010649405,1.395142553591988,-41.0,-1219.777511
7,0.23528881079690606,0.07183311935417915,1.6134089883216414,0.8348548109069035,-41.0,-1219.777511
8,0.2689014980536069,0.31405251082840613,1.6470216755783422,0.3494661562800547,-41.0,-1219.777511
9,0.30251418531030777,0.4676555839454456,1.680634362835043,0.04776865725251328,-41.0,-1219.777511
10,0.3361268725670086,0.42284264944961136,1.714247050091744,-0.07033651398391236,-41.0,-1219.777511
11,0.36973955982370954,0.16042949318192165,1.747859737348445,-0.08832221006568404,-41.0,-1219.777511
12,0.4033522470804104,-0.20857738161987782,1.7814724246051457,-0.1196063142104887,-41.0,-1219.777511
13,0.43696493433711125,-0.4854305636032345,1.8150851118618467,-0.2554038772038253,-41.0,-1219.777511
14,0.4705776215938121,-0.49997281188515535,1.8486977991185474,-0.531849331818699,-41.0,-1219.777511
15,0.504190308850513,-0.2264246325035002,1.8823104863752484,-0.9190010814028893,-41.0,-1219.777511
16,0.5378029961072138,0.19384660160756215,1.915923173631949,-1.3266219888028792,-41.0,-1219.777511
17,0.5714156833639147,0.54988506969534,1.9495358608886502,-1.6238755826626505,-41.0,-1219.777511
18,0.6050283706206155,0.7058696226949522,1.9831485481453508,-1.6745632488309734,-41.0,-1219.777511
19,0.6386410578773164,0.6794513117044855,2.016761235402052,-1.386514924105419,-41.0,-1219.777511
20,0.6722537451340173,0.6012840628017747,2.0503739226587525,-0.7613505540475455,-41.0,-1219.777511
21,0.7058664323907181,0.6037202119662676,2.0839866099154536,0.08138197622084123,-41.0,-1219.777511
22,0.7394791196474191,0.7304863692301949,2.1175992971721547,0.9292097552991321,-41.0,-1219.777511
23,0.7730918069041199,0.921340845441591,2.1512119844288553,1.5513202512539563,-41.0,-1219.777511
24,0.8067044941608208,1.0601935410530012,2.184824671685556,1.7914859368550884,-41.0,-1219.777511
25,0.8403171814175217,1.0406817168911127,2.218437358942257,1.6313320334840284,-41.0,-1219.777511
26,0.8739298686742225,0.812689101460658,2.252050046198958,1.1895006376721802,-41.0,-1219.777511
27,0.9075425559309234,0.4004887243595285,2.2856627334556587,0.658601645780566,-41.0,-1219.777511
28,0.9411552431876242,-0.1030264363283955,2.3192754207123594,0.21616928732868795,-41.0,-1219.777511
29,0.9747679304443251,-0.5651389906581125,2.3528881079690604,-0.043845176292517794,-41.0,-1219.777511
30,1.008380617701026,-0.8642651792998288,2.3865007952257615,-0.1299127716857392,-41.0,-1219.777511
31,1.0419933049577268,-0.9469600447131452,2.420113482482462,-0.12378071861476093,-41.0,-1219.777511
32,1.0756059922144277,-0.8596686615121301,2.453726169739163,-0.12883070807336253,-41.0,-1219.777511
33,1.1092186794711285,-0.7306038506302963,2.487338856995864,-0.2252636056180907,-41.0,-1219.777511
34,1.1428313667278294,-0.7051889281931956,2.520951544252565,-0.44715818216524744,-41.0,-1219.777511
35,1.1764440539845302,-0.8661253822066594,2.5545642315092656,-0.7780845997192155,-41.0,-1219.777511
36,1.210056741241231,-1.1793683943131077,2.5881769187659662,-1.1543515129109474,-41.0,-1219.777511
37,1.243669428497932,-1.4983027133089735,2.6217896060226673,-1.4719014819789737,-41.0,-1219.777511
38,1.2772821157546328,-1.6318861059063263,2.6554022932793684,-1.6043345047330546,-41.0,-1219.777511
39,1.3108948030113337,-1.445455653069639,2.689014980536069,-1.4409189202466026,-41.0,-1219.777511
40,1.3445074902680345,-0.9376621002549934,2.7226276677927697,-0.9391489370931687,-41.0,-1219.777511
41,1.3781201775247354,-0.2467335361115326,2.7562403550494707,-0.16647445707974984,-41.0,-1219.777511
42,1.4117328647814362,0.4176111960868151,2.789853042306172,0.7006275226529727,-41.0,-1219.777511
43,1.4453455520381373,0.8735131840298868,2.823465729562873,1.433421554398055,-41.0,-1219.777511
44,1.4789582392948382,1.039667714646431,2.8570784168195735,1.8418603885944071,-41.0,-1219.777511
45,1.512570926551539,0.9498826402850311,2.890691104076274,1.8523939114915826,-41.0,-1219.777511
46,1.5461836138082399,0.7180524737123886,2.9243037913329752,1.5300628438091965,-41.0,-1219.777511
47,1.5797963010649407,0.481645481696678,2.9579164785896763,1.0354639070130989,-41.0,-1219.777511
48,1.6134089883216416,0.34759508668144595,2.991529165846377,0.5448573847393741,-41.0,-1219.777511
49,1.6470216755783424,0.3565192274574429,3.0251418531030776,0.17826349027088612,-41.0,-1219.777511
50,1.6806343628350433,0.47697243130011374,3.0587545403597787,-0.03180811886236991,-41.0,-1219.777511
51,1.7142470500917442,0.6308582803458982,3.0923672276164798,-0.12657673055065943,-41.0,-1219.777511
52,1.747859737348445,0.7338465674125596,3.1259799148731804,-0.18167342787302518,-41.0,-1219.777511
53,1.7814724246051459,0.7269160462747217,3.159592602129881,-0.26835480256585476,-41.0,-1219.777511
54,1.8150851118618467,0.5856414554231059,3.193205289386582,-0.4309268102266789,-41.0,-1219.777511
55,1.8486977991185476,0.3129544104304298,3.226817976643283,-0.6796952315710145,-41.0,-1219.777511
56,1.8823104863752484,-0.06574025914105659,3.260430663899984,-0.9894207218749542,-41.0,-1219.777511
57,1.9159231736319493,-0.49143225517628575,3.2940433511566845,-1.2970726203668748,-41.0,-1219.777511
58,1.9495358608886502,-0.8570930431807648,3.3276560384133855,-1.5045851336000013,-41.0,-1219.777511
59,1.983148548145351,-1.02541364399023,3.3612687256700866,-1.4995966958565752,-41.0,-1219.777511
60,2.016761235402052,-0.8958787167562879,3.3948814129267872,-1.1995014463769114,-41.0,-1219.777511
61,2.050373922658753,-0.48385030776940585,3.4284941001834883,-0.6037976137742064,-41.0,-1219.777511
62,2.0839866099154536,0.05806852680542121,3.428494100183488,-0.6037976137742143,-40.0,-1190.02684
63,2.1175992971721547,0.5110908876234732,3.462106787440189,0.1773644191474111,-40.0,-1190.02684
64,2.1512119844288553,0.7133746866271381,3.49571947469689,0.946292975571138,-40.0,-1190.02684
65,2.1848246716855564,0.6499656000656288,3.529332161953591,1.491823947283417,-40.0,-1190.02684
66,2.218437358942257,0.44696042091834276,3.5629448492102913,1.6791633391296839,-40.0,-1190.02684
67,2.252050046198958,0.2754198805414997,3.5965575364669924,1.5063402262554615,-40.0,-1190.02684
68,2.2856627334556587,0.23345049429540254,2.2856627334556587,0.658601645780566,0.0,0.0
69,2.31927542071236,0.28993691034198926,2.2856627334556587,0.658601645780566,1.0,29.750671
70,2.3528881079690604,0.32884902719049747,2.3192754207123594,0.21616928732868795,1.0,29.750671
71,2.3865007952257615,0.2582200209698904,2.3528881079690604,-0.043845176292517794,1.0,29.750671
72,2.420113482482462,0.09786532442937544,2.386500795225761,-0.12991277168573806,1.0,29.750671
73,2.4537261697391632,-0.024820626448778756,2.4537261697391632,-0.12883070807336258,0.0,0.0
74,2.487338856995864,0.028751228023157743,2.487338856995864,-0.2252636056180907,0.0,0.0
75,2.520951544252565,0.28898523064011455,2.520951544252565,-0.44715818216524744,0.0,0.0
76,2.5545642315092656,0.6221557113406682,2.5209515442525645,-0.4471581821652445,1.0,29.750671
77,2.5881769187659667,0.7841658147896771,2.5545642315092656,-0.7780845997192155,1.0,29.750671
78,2.6217896060226673,0.5613614962250997,2.5881769187659662,-1.1543515129109474,1.0,29.750671
79,2.6554022932793684,-0.08468105464916194,2.6217896060226673,-1.4719014819789737,1.0,29.750671
80,2.689014980536069,-0.9643725509060062,2.655402293279368,-1.6043345047330528,1.0,29.750671
81,2.72262766779277,-1.7420637653758821,2.689014980536069,-1.4409189202466026,1.0,29.750671
82,2.7562403550494707,-2.1084262850375803,2.7226276677927697,-0.9391489370931687,1.0,29.750671
83,2.789853042306172,-1.9420313236119813,2.7562403550494707,-0.16647445707974984,1.0,29.750671
84,2.8234657295628725,-1.368939534898136,2.7898530423061714,0.7006275226529612,1.0,29.750671
85,2.8570784168195735,-0.6904795800603994,2.8234657295628725,1.4334215543980497,1.0,29.750671
86,2.8906911040762746,-0.22076621928551476,2.8570784168195735,1.8418603885944071,1.0,29.750671
87,2.9243037913329752,-0.12209579675129337,2.890691104076274,1.8523939114915826,1.0,29.750671
88,2.9579164785896763,-0.32819879222848697,2.9243037913329752,1.5300628438091965,1.0,29.750671
89,2.991529165846377,-0.5979031487412679,2.957916478589676,1.0354639070131055,1.0,29.750671
90,3.025141853103078,-0.6646444957935388,2.991529165846377,0.5448573847393741,1.0,29.750671
91,3.0587545403597787,-0.3874999635977505,3.0251418531030776,0.17826349027088612,1.0,29.750671
92,3.0923672276164798,0.1863435551538908,3.0587545403597787,-0.03180811886236991,1.0,29.750671
93,3.1259799148731804,0.8707508173612442,3.0923672276164793,-0.12657673055065818,1.0,29.750671
94,3.1595926021298815,1.4508340462924199,3.1259799148731804,-0.18167342787302518,1.0,29.750671
95,3.193205289386582,1.7794607706542518,3.159592602129881,-0.26835480256585476,1.0,29.750671
96,3.226817976643283,1.8152920662364256,3.193205289386582,-0.4309268102266789,1.0,29.750671
97,3.260430663899984,1.6044374922044022,3.2268179766432827,-0.6796952315710112,1.0,29.750671
98,3.294043351156685,1.2362613470746213,3.260430663899984,-0.9894207218749542,1.0,29.750671
99,3.3276560384133855,0.8038941231678179,3.2940433511566845,-1.2970726203668748,1.0,29.750671
100,3.3612687256700866,0.38300819405414593,3.294043351156685,-1.2970726203668788,2.0,59.501342
101,3.3948814129267872,0.02675273463934802,3.3276560384133855,-1.5045851336000013,2.0,59.501342
102,3.4284941001834883,-0.2306551972319593,3.3612687256700866,-1.4995966958565752,2.0,59.501342
103,3.462106787440189,-0.36952350637274267,3.3948814129267872,-1.1995014463769114,2.0,59.501342
104,3.49571947469689,-0.38693607835294647,3.4284941001834883,-0.6037976137742064,2.0,59.501342
105,3.5293321619535907,-0.3063790603624621,3.462106787440189,0.1773644191474111,2.0,59.501342
106,3.5629448492102918,-0.18246774484213027,4.167973219830907,1.044769169486151,-18.0,-535.512078
107,3.5965575364669924,-0.08480466358412535,4.201585907087608,1.4006919165356313,-18.0,-535.512078
108,3.6301702237236935,-0.06116543472966731,4.235198594344309,1.416758626983406,-18.0,-535.512078
109,3.663782910980394,-0.10439704982962995,4.2688112816010095,1.16043880360348,-18.0,-535.512078
110,3.697395598237095,-0.1557981810247077,4.302423968857711,0.7787616224802106,-18.0,-535.512078
111,3.731008285493796,-0.15466332743118452,4.336036656114412,0.4246909245144171,-18.0,-535.512078
112,3.764620972750497,-0.09952911539438743,4.369649343371113,0.191790079156136,-18.0,-535.512078
113,3.7982336600071975,-0.06348327632257597,4.403262030627813,0.0861222854401352,-18.0,-535.512078
114,3.8318463472638986,-0.1399344733512291,4.436874717884514,0.04216043710002091,-18.0,-535.512078
115,3.8654590345205997,-0.3617227502634962,4.470487405141215,-0.03211353802189756,-18.0,-535.512078
116,3.8990717217773003,-0.6647780440995533,4.504100092397916,-0.2065072347726921,-18.0,-535.512078
117,3.9326844090340014,-0.9258588860641126,4.537712779654617,-0.4978346525553349,-18.0,-535.512078
118,3.966297096290702,-1.0375091294163425,4.5713254669113175,-0.8642453038831598,-18.0,-535.512078
119,3.999909783547403,-0.9585002849654832,4.6049381541680185,-1.218507666888471,-18.0,-535.512078
120,4.033522470804104,-0.7107894485494605,4.63855084142472,-1.4509179867685447,-18.0,-535.512078
121,4.067135158060805,-0.3433056713450977,2.6890149805360695,-1.440918920246596,41.0,1219.777511
122,4.100747845317506,0.09810007559782949,2.7226276677927705,-0.9391489370931518,41.0,1219.777511
123,4.134360532574206,0.572879763504921,4.739388903194822,-0.6218046361425235,-18.0,-535.512078
124,4.167973219830907,1.026671030339535,2.789853042306172,0.7006275226529727,41.0,1219.777511
125,4.201585907087608,1.3738404874446364,2.823465729562873,1.433421554398055,41.0,1219.777511
126,4.235198594344309,1.5057913890579262,2.857078416819574,1.8418603885944074,41.0,1219.777511
127,4.2688112816010095,1.3357589138706754,2.890691104076274,1.8523939114915826,41.0,1219.777511
128,4.302423968857711,0.8620403100166418,2.9243037913329752,1.5300628438091965,41.0,1219.777511
129,4.336036656114412,0.20284120062776675,2.9579164785896763,1.0354639070130989,41.0,1219.777511
130,4.369649343371113,-0.43745970507522897,2.9915291658463774,0.5448573847393692,41.0,1219.777511
131,4.403262030627813,-0.8599042679160414,3.0251418531030776,0.17826349027088612,41.0,1219.777511
132,4.436874717884514,-0.9618918417812798,3.0587545403597787,-0.03180811886236991,41.0,1219.777511
133,4.470487405141215,-0.7729430494597478,3.0923672276164798,-0.12657673055065943,41.0,1219.777511
134,4.504100092397916,-0.42531505457488256,3.125979914873181,-0.18167342787302632,41.0,1219.777511
135,4.537712779654616,-0.08858130661137802,3.159592602129881,-0.26835480256585476,41.0,1219.777511
136,4.5713254669113175,0.0937605779941443,3.193205289386582,-0.4309268102266789,41.0,1219.777511
137,4.6049381541680185,0.04330996974016257,3.226817976643283,-0.6796952315710145,41.0,1219.777511
138,4.63855084142472,-0.23827389783438602,3.2604306638999843,-0.9894207218749583,41.0,1219.777511
139,4.67216352868142,-0.6675206307071081,3.2940433511566845,-1.2970726203668748,41.0,1219.777511
140,4.705776215938121,-1.0887722935888766,3.3276560384133855,-1.5045851336000013,41.0,1219.777511
141,4.739388903194822,-1.3077127460741205,3.3612687256700866,-1.4995966958565752,41.0,1219.777511
142,4.773001590451523,-1.1585900322263958,3.3948814129267877,-1.1995014463769036,41.0,1219.777511
143,4.806614277708224,-0.5891431693148316,3.4284941001834888,-0.603797613774196,41.0,1219.777511
144,4.840226964964924,0.28227579883252935,4.134360532574206,0.40439655452017836,21.0,624.764091
145,4.873839652221625,1.1859972733490527,4.167973219830907,1.044769169486151,21.0,624.764091
146,4.9074523394783265,1.8079519531019148,4.201585907087608,1.4006919165356313,21.0,624.764091
147,4.941065026735028,1.937020053350892,4.235198594344309,1.416758626983406,21.0,624.764091
148,4.974677713991728,1.5690502173283336,4.2688112816010095,1.16043880360348,21.0,624.764091
149,5.008290401248429,0.9021095385096756,4.302423968857711,0.7787616224802106,21.0,624.764091
150,5.04190308850513,0.2245044244051175,4.336036656114412,0.4246909245144171,21.0,624.764091
151,5.075515775761831,-0.23324579314838326,4.369649343371113,0.191790079156136,21.0,624.764091
152,5.109128463018531,-0.39203082561727076,4.403262030627813,0.0861222854401352,21.0,624.764091
153,5.142741150275232,-0.31930436540235035,4.436874717884514,0.04216043710002091,21.0,624.764091
154,5.176353837531933,-0.15266241636252456,4.470487405141215,-0.03211353802189756,21.0,624.764091
155,5.209966524788634,-0.01477622179310844,4.504100092397916,-0.2065072347726921,21.0,624.764091
156,5.243579212045335,0.034059584048623054,4.537712779654616,-0.4978346525553252,21.0,624.764091
157,5.277191899302036,-0.002701438778623216,5.2099665247886335,-0.5737440676945753,2.0,59.501342
158,5.310804586558737,-0.08670308345488136,5.243579212045335,-0.9289641877535113,2.0,59.501342
159,5.344417273815438,-0.1819043968606263,5.277191899302036,-1.274368517851389,2.0,59.501342
160,5.378029961072138,-0.27887957825024945,5.310804586558736,-1.5094277254441266,2.0,59.501342
161,5.411642648328839,-0.3904632009532721,5.378029961072138,-1.2511826292487704,1.0,29.750671
162,5.44525533558554,-0.5216633374097948,5.411642648328839,-0.6835581426883077,1.0,29.750671
163,5.478868022842241,-0.6412194650451682,5.411642648328839,-0.6835581426883077,2.0,59.501342
164,5.5124807100989415,-0.6859810854135684,5.445255335585539,0.07379975237482195,2.0,59.501342
165,5.5460933973556426,-0.600701479157343,5.47886802284224,0.8360279279456146,2.0,59.501342
166,5.579706084612344,-0.3805998362123161,5.5124807100989415,1.3999676332337265,2.0,59.501342
167,5.613318771869045,-0.0791782504261648,5.5460933973556426,1.6264407817798205,2.0,59.501342
168,5.646931459125745,0.22471893500108364,5.579706084612343,1.4970523423038686,2.0,59.501342
169,5.680544146382446,0.47057483149770524,5.613318771869044,1.114380040305859,2.0,59.501342
170,5.714156833639147,0.6348960004433077,5.646931459125745,0.647111234755846,2.0,59.501342
171,5.747769520895848,0.7162395499759633,5.680544146382446,0.25196264155294407,2.0,59.501342
172,5.781382208152549,0.7089273306748269,5.714156833639147,0.012923359859073051,2.0,59.501342
173,5.814994895409249,0.5947426080096363,5.747769520895847,-0.07663460295278846,2.0,59.501342
174,5.8486075826659505,0.36185072143962144,5.781382208152548,-0.08932838468268375,2.0,59.501342
175,5.882220269922652,0.03352436563847212,5.814994895409249,-0.11730870657286159,2.0,59.501342
176,5.915832957179353,-0.32100988033699257,5.8486075826659505,-0.22960908819800183,2.0,59.501342
177,5.949445644436053,-0.6079512881992154,5.882220269922651,-0.4492067756425472,2.0,59.501342
178,5.983058331692754,-0.7519866229650165,5.915832957179352,-0.7505127065034753,2.0,59.501342
179,6.016671018949455,-0.7339483037086021,5.949445644436053,-1.0685193964834572,2.0,59.501342
180,6.050283706206156,-0.5985835214411703,6.655312076826772,-1.0798308755776547,-18.0,-535.512078
181,6.083896393462856,-0.4254030341814064,6.688924764083472,-1.2759807099187521,-18.0,-535.512078
182,6.117509080719557,-0.27756464277019244,6.722537451340173,-1.3250988282377465,-18.0,-535.512078
183,6.151121767976258,-0.16040944614176522,6.756150138596874,-1.1440975168473468,-18.0,-535.512078
184,6.1847344552329595,-0.02146385880223057,6.789762825853575,-0.7007225741278689,-18.0,-535.512078
185,6.21834714248966,0.20002074373537496,6.823375513110276,-0.054028538692475474,-18.0,-535.512078
186,6.251959829746361,0.5049000793688014,6.151121767976258,0.5910729223526769,3.0,89.252013
187,6.285572517003062,0.8038555279266708,6.1847344552329595,1.1777038299461007,3.0,89.252013
188,6.319185204259763,0.9624482859214804,6.218347142489661,1.5015743672676043,3.0,89.252013
189,6.352797891516463,0.8973212725466417,6.251959829746361,1.5128464773266521,3.0,89.252013
190,6.386410578773164,0.6471524894265235,6.285572517003062,1.2685980423118077,3.0,89.252013
191,6.420023266029865,0.3546436522414965,6.319185204259763,0.8962654926967344,3.0,89.252013
192,6.453635953286566,0.16728019234375077,6.352797891516464,0.5300844383735108,3.0,89.252013
193,6.4872486405432666,0.13131909833410563,6.386410578773164,0.25608405817689267,3.0,89.252013
194,6.520861327799968,0.15933184233078826,6.420023266029865,0.09097213783000958,3.0,89.252013
195,6.554474015056669,0.09494431158341561,6.453635953286566,-0.0025341206183868217,3.0,89.252013
196,6.58808670231337,-0.17307003387852476,6.487248640543267,-0.08120393425714925,3.0,89.252013
197,6.62169938957007,-0.6264656446685959,6.520861327799968,-0.1907784363065324,3.0,89.252013
198,6.655312076826771,-1.1158948361555914,6.554474015056669,-0.35323880367711846,3.0,89.252013
199,6.688924764083472,-1.4392326090169636,7.260340447447387,-0.5180088768098838,-17.0,-505.761407
200,6.722537451340173,-1.4519663193853167,6.251959829746361,1.5128464773266521,14.0,416.509394
201,6.756150138596874,-1.1473522383183192,6.285572517003062,1.2685980423118077,14.0,416.509394
202,6.7897628258535745,-0.6607018603356823,6.319185204259762,0.8962654926967443,14.0,416.509394
203,6.823375513110276,-0.19316812194634855,6.352797891516463,0.530084438373518,14.0,416.509394
204,6.856988200366977,0.10131246058533522,6.352797891516464,0.5300844383735108,15.0,446.260065
205,6.890600887623678,0.19750650499490213,6.386410578773165,0.2560840581768883,15.0,446.260065
206,6.924213574880378,0.19997076728391242,6.420023266029865,0.09097213783000958,15.0,446.260065
207,6.957826262137079,0.2659874009671904,6.453635953286566,-0.0025341206183868217,15.0,446.260065
208,6.99143894939378,0.5002112400099498,6.520861327799968,-0.1907784363065324,14.0,416.509394
209,7.025051636650481,0.8863610135089952,6.554474015056669,-0.35323880367711846,14.0,416.509394
210,7.058664323907181,1.2969612231405225,6.588086702313369,-0.5693499085444732,14.0,416.509394
211,7.092277011163882,1.5716962719747922,6.62169938957007,-0.8233662089054359,14.0,416.509394
212,7.1258896984205835,1.6093480349087064,6.655312076826771,-1.0798308755776496,14.0,416.509394
213,7.159502385677285,1.4118777642077354,6.688924764083472,-1.2759807099187521,14.0,416.509394
214,7.193115072933985,1.0589455113006374,6.722537451340172,-1.3250988282377452,14.0,416.509394
215,7.226727760190686,0.6430403857734487,7.092277011163882,0.10492536106194632,4.0,119.002684
216,7.260340447447387,0.21787238044185497,7.1258896984205835,-0.010764600390259888,4.0,119.002684
217,7.293953134704088,-0.2057443154867704,7.159502385677285,-0.06802948184041939,4.0,119.002684
218,7.327565821960788,-0.6238773513091721,7.193115072933985,-0.14276680343559528,4.0,119.002684
219,7.361178509217489,-1.0042743286823361,6.890600887623677,1.2040745331268852,14.0,416.509394
220,7.39479119647419,-1.2889773879909445,6.924213574880378,1.4748507464203175,14.0,416.509394
221,7.428403883730891,-1.4310200679996152,6.957826262137079,1.4166769479325638,14.0,416.509394
222,7.462016570987592,-1.4261330333058277,6.991438949393779,1.1089303364987129,14.0,416.509394
223,7.495629258244293,-1.3094313746191069,7.02505163665048,0.7020859816459295,14.0,416.509394
224,7.529241945500994,-1.1262412554260854,7.058664323907181,0.341131250288672,14.0,416.509394
225,7.562854632757695,-0.9079128006623938,7.092277011163882,0.10492536106194632,14.0,416.509394
226,7.596467320014395,-0.6684323994209784,7.798143443554601,-0.24525221389540766,-6.0,-178.504026
227,7.630080007271096,-0.41218499739488634,7.831756130811302,-0.2830545419100793,-6.0,-178.504026
228,7.663692694527797,-0.1384121980955782,7.562854632757695,1.4810346927589697,3.0,89.252013
229,7.697305381784498,0.1567732629212249,7.596467320014396,1.6872668100035972,3.0,89.252013
230,7.730918069041199,0.46954394383502196,7.630080007271097,1.5329912583554257,3.0,89.252013
231,7.7645307562979,0.7690810402202688,7.663692694527797,1.1175030274519269,3.0,89.252013
232,7.798143443554601,0.9911032349946469,7.697305381784498,0.6092489842623854,3.0,89.252013
233,7.831756130811302,1.0647785679848132,7.730918069041199,0.1677212446927441,3.0,89.252013
234,7.865368818068003,0.9625912637466387,7.7645307562979005,-0.11736146876661185,3.0,89.252013
235,7.898981505324703,0.7318295274803407,7.798143443554601,-0.24525221389540766,3.0,89.252013
236,7.932594192581404,0.4727134902977659,7.831756130811302,-0.2830545419100793,3.0,89.252013
237,7.966206879838105,0.2723422828549657,7.865368818068003,-0.32341502170328124,3.0,89.252013
238,7.999819567094806,0.1455972981508836,7.898981505324704,-0.4426901977191956,3.0,89.252013
239,8.033432254351506,0.032679138080769686,7.932594192581404,-0.6721794889246421,3.0,89.252013
240,8.067044941608208,-0.14207980956659047,7.966206879838105,-0.9846207742488565,3.0,89.252013
241,8.100657628864909,-0.3945524106110301,7.999819567094806,-1.2949644720333535,3.0,89.252013
242,8.13427031612161,-0.6466226233728404,8.033432254351506,-1.4781509319754211,3.0,89.252013
243,8.16788300337831,-0.7624616345616961,8.067044941608208,-1.4082198953181335,3.0,89.252013
244,8.201495690635012,-0.6348205494959025,8.100657628864909,-1.0139168841548747,3.0,89.252013
245,8.235108377891711,-0.2661540255124114,8.134270316121608,-0.328625536898809,3.0,89.252013
246,8.268721065148412,0.20913380383096386,8.167883003378309,0.4975867703522578,3.0,89.252013
247,8.302333752405113,0.581543430261404,8.20149569063501,1.2431982637566124,3.0,89.252013
248,8.335946439661814,0.6774073428199209,8.235108377891711,1.703583503798471,3.0,89.252013
249,8.369559126918515,0.4646795399871798,8.235108377891711,1.703583503798471,4.0,119.002684
250,8.403171814175217,0.08910265868643884,8.268721065148412,1.7774003778532803,4.0,119.002684
251,8.436784501431918,-0.193132377490059,8.302333752405113,1.5033906901216059,4.0,119.002684
252,8.470397188688619,-0.1614066287557877,8.335946439661814,1.0296816718819446,4.0,119.002684
253,8.504009875945318,0.22708530572391183,8.369559126918514,0.5374184417897689,4.0,119.002684
254,8.537622563202019,0.7921959055761485,8.403171814175215,0.16232075217955017,4.0,119.002684
255,8.57123525045872,1.2190678688752699,8.436784501431916,-0.04912224788315048,4.0,119.002684
256,8.604847937715421,1.2287854488644387,8.470397188688617,-0.13692076907855327,4.0,119.002684
257,8.638460624972122,0.729219699730686,8.504009875945318,-0.1904378339961151,4.0,119.002684
258,8.672073312228823,-0.13817047346878056,8.537622563202019,-0.29984062288542424,4.0,119.002684
259,8.705685999485524,-1.0736499763758072,8.57123525045872,-0.5159060757137295,4.0,119.002684
260,8.739298686742226,-1.7663349090699445,8.604847937715421,-0.8278477285460891,4.0,119.002684
261,8.772911373998927,-2.028834827878315,8.638460624972122,-1.16106309789719,4.0,119.002684
262,8.806524061255626,-1.850805857307682,8.672073312228822,-1.3951302592766626,4.0,119.002684
263,8.840136748512327,-1.3577997202726984,8.705685999485523,-1.4024777644672612,4.0,119.002684
264,8.873749435769028,-0.718905106739884,8.772911373998925,-0.509487051452185,3.0,89.252013
265,8.90736212302573,-0.06691066531111932,8.806524061255626,0.24596706836080276,3.0,89.252013
266,8.94097481028243,0.5286914140422403,8.840136748512327,0.9565867417126904,3.0,89.252013
267,8.974587497539131,1.037137533439871,8.873749435769028,1.4172831909695034,3.0,89.252013
268,9.008200184795832,1.4226128550998716,8.90736212302573,1.5125563896992742,3.0,89.252013
269,9.041812872052533,1.6203271529846406,8.94097481028243,1.2622503368286677,3.0,89.252013
270,9.075425559309233,1.5540928070547104,8.97458749753913,0.802400823130982,3.0,89.252013
271,9.109038246565934,1.1858741194432108,9.00820018479583,0.31593399834896924,3.0,89.252013
272,9.142650933822635,0.5612486051447446,9.041812872052532,-0.04688224419560033,3.0,89.252013
273,9.176263621079336,-0.18670109456810394,9.075425559309233,-0.22046567991612395,3.0,89.252013
274,9.209876308336037,-0.8832921068865792,9.109038246565934,-0.23225393206240988,3.0,89.252013
275,9.243488995592738,-1.3792368329526246,9.142650933822635,-0.1743012251298311,3.0,89.252013
276,9.27710168284944,-1.5982026354939856,9.176263621079336,-0.15698635250884246,3.0,89.252013
277,9.31071437010614,-1.5445701620973085,9.209876308336037,-0.2629741115410318,3.0,89.252013
278,9.34432705736284,-1.2798710162752136,9.243488995592736,-0.5130877808370857,3.0,89.252013
279,9.37793974461954,-0.889940838905815,9.277101682849437,-0.851070446246083,3.0,89.252013
280,9.411552431876242,-0.45905365478054366,9.310714370106139,-1.1533113415613383,3.0,89.252013
281,9.445165119132943,-0.053320392774116016,9.310714370106139,-1.1533113415613383,4.0,119.002684
282,9.478777806389644,0.2916430831500601,9.34432705736284,-1.2675830073084968,4.0,119.002684
283,9.512390493646345,0.5769270885543888,9.37793974461954,-1.0752920736566591,4.0,119.002684
284,9.546003180903046,0.8293518073777804,9.445165119132943,0.18431347160327272,3.0,89.252013
285,9.579615868159747,1.070452857881543,9.478777806389644,0.9336291801458144,3.0,89.252013
286,9.613228555416448,1.2848156516173759,9.512390493646345,1.463125324313141,3.0,89.252013
287,9.646841242673148,1.4154590517203525,9.546003180903044,1.6229755046015215,3.0,89.252013
288,9.680453929929849,1.3941458823943826,9.546003180903044,1.6229755046015215,4.0,119.002684
289,9.71406661718655,1.1861537595086127,9.579615868159745,1.4056394479131809,4.0,119.002684
290,9.74767930444325,0.8192966944614893,9.613228555416446,0.9388556367927428,4.0,119.002684
291,9.781291991699952,0.3799231185396397,9.646841242673148,0.41696393257165576,4.0,119.002684
292,9.814904678956653,-0.021388066300972345,9.680453929929849,0.011246285541382909,4.0,119.002684
293,9.848517366213354,-0.2974925060883549,9.74767930444325,-0.22578840354582289,3.0,89.252013
294,9.882130053470055,-0.4225571614455547,9.781291991699952,-0.1778358325826604,3.0,89.252013
295,9.915742740726754,-0.4400830411592851,9.814904678956651,-0.17173620549330268,3.0,89.252013
296,9.949355427983456,-0.43544924387729655,9.848517366213352,-0.2946844824099429,3.0,89.252013
297,9.982968115240157,-0.4869576194058002,9.882130053470053,-0.5637917560793897,3.0,89.252013
298,10.016580802496858,-0.6218548729566098,9.915742740726754,-0.9150481361763615,3.0,89.252013
299,10.050193489753559,-0.8014111624791798,9.949355427983456,-1.2207976212926108,3.0,89.252013
300,10.08380617701026,-0.9427514090989743,9.982968115240157,-1.3332208807615256,3.0,89.252013
301,10.117418864266961,-0.9643921116759512,10.016580802496858,-1.144030141656472,3.0,89.252013
302,10.151031551523662,-0.8299603255050206,10.050193489753559,-0.6400681253832481,3.0,89.252013
303,10.184644238780361,-0.5663459691085292,10.083806177010258,0.07240815891417107,3.0,89.252013
304,10.218256926037062,-0.24677763556036594,10.11741886426696,0.7949159607803649,3.0,89.252013
305,10.251869613293763,0.05059436647754588,10.15103155152366,1.311614561747636,3.0,89.252013
306,10.285482300550465,0.2827081532498334,10.184644238780361,1.479204333406869,3.0,89.252013
307,10.319094987807166,0.45370213238216,10.218256926037062,1.2861165277058149,3.0,89.252013
308,10.352707675063867,0.5904658167082579,10.251869613293763,0.8500113547136594,3.0,89.252013
309,10.386320362320568,0.701114820560322,10.285482300550465,0.35675784968057805,3.0,89.252013
310,10.419933049577269,0.7515825718993985,10.319094987807166,-0.025178858355235152,3.0,89.252013
311,10.453545736833968,0.6806617549549597,10.352707675063865,-0.21225573217804874,3.0,89.252013
312,10.48715842409067,0.4417697557081223,10.386320362320566,-0.22737268971815514,3.0,89.252013
313,10.52077111134737,0.041941710877574805,10.419933049577267,-0.17295119808470208,3.0,89.252013
314,10.554383798604071,-0.4448911310416354,10.453545736833968,-0.17385326031907375,3.0,89.252013
315,10.587996485860772,-0.8973888432826232,10.48715842409067,-0.31629935267296194,3.0,89.252013
316,10.621609173117474,-1.1914680901291634,10.52077111134737,-0.6053293967596027,3.0,89.252013
317,10.655221860374175,-1.2490110509021506,10.554383798604071,-0.9546172916791195,3.0,89.252013
318,10.688834547630876,-1.0639699390302997,10.587996485860772,-1.2132747267162547,3.0,89.252013
319,10.722447234887577,-0.6925629336342255,10.587996485860772,-1.2132747267162547,4.0,119.002684
320,10.756059922144276,-0.21904965207727137,10.621609173117472,-1.2243443101598748,4.0,119.002684
321,10.789672609400977,0.2774962167987535,10.655221860374173,-0.8969917855433142,4.0,119.002684
322,10.823285296657678,0.7371443553356604,10.688834547630874,-0.26216109751903505,4.0,119.002684
323,10.85689798391438,1.1137761037855587,10.722447234887575,0.5200377145984654,4.0,119.002684
324,10.89051067117108,1.3639782630176234,10.756059922144276,1.2147228879466183,4.0,119.002684
325,10.924123358427781,1.4443054858194828,10.789672609400977,1.608752254237415,4.0,119.002684
326,10.957736045684483,1.3231354630889627,10.823285296657678,1.6020593845819757,4.0,119.002684
327,10.991348732941184,1.004261229866246,10.85689798391438,1.2459054363566657,4.0,119.002684
328,11.024961420197883,0.5486046287120583,10.890510671171079,0.7094574157237692,4.0,119.002684
329,11.058574107454584,0.07203368851573663,10.92412335842778,0.19574081864727533,4.0,119.002684
330,11.092186794711285,-0.29369922982791474,10.95773604568448,-0.1478559948281551,4.0,119.002684
331,11.125799481967986,-0.4624933679313169,10.991348732941182,-0.28269473967546954,4.0,119.002684
332,11.159412169224687,-0.44116590082283114,11.024961420197883,-0.2773783826002726,4.0,119.002684
333,11.193024856481388,-0.3295546693649198,11.058574107454584,-0.26042516703684965,4.0,119.002684
334,11.22663754373809,-0.268567390327159,11.092186794711285,-0.3527414437611463,4.0,119.002684
335,11.26025023099479,-0.36315540122905166,11.125799481967986,-0.6080568888616267,4.0,119.002684
336,11.29386291825149,-0.621875135458212,11.159412169224685,-0.9821977404746254,4.0,119.002684
337,11.32747560550819,-0.9451415071234622,11.193024856481387,-1.3416262031850157,4.0,119.002684
338,11.361088292764892,-1.1687376860049825,11.226637543738088,-1.5109165300091507,4.0,119.002684
339,11.394700980021593,-1.142204510313875,11.260250230994789,-1.3463494179548667,4.0,119.002684
340,11.428313667278294,-0.8052850720928573,11.29386291825149,-0.8087821536997113,4.0,119.002684
341,11.461926354534995,-0.22503605905766383,11.32747560550819,-0.0008248712319238094,4.0,119.002684
342,11.495539041791696,0.4279664308612531,11.361088292764892,0.8576361810024007,4.0,119.002684
343,11.529151729048397,0.9571531065525629,11.394700980021593,1.5127201488437618,4.0,119.002684
344,11.562764416305098,1.2328056695286465,11.428313667278294,1.7816573135243507,4.0,119.002684
345,11.596377103561798,1.2462039197763861,11.461926354534993,1.6269829916492504,4.0,119.002684
346,11.629989790818499,1.088522184905561,11.495539041791695,1.1627679265213873,4.0,119.002684
347,11.6636024780752,0.8677063545663996,11.529151729048396,0.5931305392930761,4.0,119.002684
348,11.697215165331901,0.6262997437841464,11.562764416305097,0.11760288384823347,4.0,119.002684
349,11.730827852588602,0.32609214280042687,11.596377103561798,-0.15026714770935085,4.0,119.002684
350,11.764440539845303,-0.09012679931678144,11.629989790818499,-0.21743785688513326,4.0,119.002684
351,11.798053227102004,-0.6153912226619656,11.6636024780752,-0.19050061390487427,4.0,119.002684
352,11.831665914358705,-1.1446860088867155,11.697215165331901,-0.21396860269904794,4.0,119.002684
353,11.865278601615405,-1.517085613711926,11.7308278525886,-0.3953911761335738,4.0,119.002684
354,11.898891288872106,-1.602853011186376,11.764440539845301,-0.747319068983622,4.0,119.002684
355,11.932503976128807,-1.376264297652645,11.798053227102002,-1.1698228084774414,4.0,119.002684
356,11.966116663385508,-0.9270156907010382,12.167792786925713,0.3490343334421079,-6.0,-178.504026
357,11.999729350642209,-0.40505123722582653,12.201405474182414,-0.013886922787004654,-6.0,-178.504026
358,12.03334203789891,0.06016283397183419,12.503919659492722,-1.364694586246425,-14.0,-416.509394
359,12.066954725155611,0.41042471832700667,11.932503976128807,-0.42161322611546825,4.0,119.002684
360,12.100567412412312,0.6533888225224573,11.966116663385508,0.4535459541777931,4.0,119.002684
361,12.134180099669011,0.8184811945593436,11.999729350642207,1.2293188407554525,4.0,119.002684
362,12.167792786925713,0.9148087763103679,12.033342037898908,1.681699400133804,4.0,119.002684
363,12.201405474182414,0.9239949700021076,12.06695472515561,1.7132047880001489,4.0,119.002684
364,12.235018161439115,0.8311995545476952,12.10056741241231,1.3824761513884607,4.0,119.002684
365,12.268630848695816,0.6651976944248245,12.47030697223602,-1.4707071765121562,-6.0,-178.504026
366,12.302243535952517,0.5069930378946856,12.503919659492722,-1.364694586246425,-6.0,-178.504026
367,12.335856223209218,0.4474954035905151,12.537532346749423,-0.9130061599053026,-6.0,-178.504026
368,12.369468910465919,0.5164525560669122,12.235018161439115,-0.18833844176378484,4.0,119.002684
369,12.40308159772262,0.6372745198954516,12.268630848695816,-0.23162138730165158,4.0,119.002684
370,12.43669428497932,0.6542997140717562,12.302243535952515,-0.2534584018571953,4.0,119.002684
371,12.47030697223602,0.4267058576555163,12.335856223209216,-0.35868155607567453,4.0,119.002684
372,12.503919659492722,-0.07270655214657683,12.369468910465917,-0.5983384186207162,4.0,119.002684
373,12.537532346749423,-0.724240898828463,12.739208470289627,1.193643276144445,-6.0,-178.504026
374,12.571145034006124,-1.3170166552513587,12.772821157546328,0.7170868540047146,-6.0,-178.504026
375,12.604757721262825,-1.6551343002770775,12.80643384480303,0.29602292501350636,-6.0,-178.504026
376,12.638370408519526,-1.6462405532534838,12.84004653205973,0.03273047538046501,-6.0,-178.504026
377,12.671983095776227,-1.3236417915436205,12.571145034006124,-0.18865399560914226,3.0,89.252013
378,12.705595783032926,-0.8010793311217723,12.604757721262823,0.6199296230276885,3.0,89.252013
379,12.739208470289627,-0.20183477106237474,12.638370408519524,1.2787294529586477,3.0,89.252013
380,12.772821157546328,0.38570051913175235,12.671983095776225,1.6061855802993072,3.0,89.252013
381,12.80643384480303,0.9024053184031934,12.705595783032926,1.5486438252688257,3.0,89.252013
382,12.84004653205973,1.2848431068684647,12.43669428497932,-1.2845072809496492,12.0,357.008052
383,12.873659219316432,1.4491933099613845,12.47030697223602,-1.4707071765121562,12.0,357.008052
384,12.907271906573133,1.319064542312521,12.503919659492722,-1.364694586246425,12.0,357.008052
385,12.940884593829834,0.880831104900738,12.537532346749423,-0.9130061599053026,12.0,357.008052
386,12.974497281086533,0.22180093740833842,12.571145034006122,-0.1886539956091806,12.0,357.008052
387,13.008109968343234,-0.4844800242153028,12.604757721262823,0.6199296230276885,12.0,357.008052
388,13.041722655599935,-1.044732842812212,12.638370408519524,1.2787294529586477,12.0,357.008052
389,13.075335342856636,-1.328409180989852,12.671983095776225,1.6061855802993072,12.0,357.008052
390,13.108948030113337,-1.3199396307530473,12.705595783032926,1.5486438252688257,12.0,357.008052
391,13.142560717370039,-1.1115238373792313,12.739208470289627,1.193643276144445,12.0,357.008052
392,13.17617340462674,-0.8407762032541943,12.772821157546328,0.7170868540047146,12.0,357.008052
393,13.20978609188344,-0.6102802917112967,12.80643384480303,0.29602292501350636,12.0,357.008052
394,13.24339877914014,-0.436943625299573,12.840046532059729,0.03273047538047896,12.0,357.008052
395,13.277011466396841,-0.2576252228088002,12.87365921931643,-0.07631136245370679,12.0,357.008052
396,13.310624153653542,0.01918922413530585,12.907271906573131,-0.11916588566239908,12.0,357.008052
397,13.344236840910243,0.4490253978943954,13.545912964450448,-0.2573488846671841,-6.0,-178.504026
398,13.377849528166944,1.007479634395624,13.61313833896385,-0.7515256069424892,-7.0,-208.254697
399,13.411462215423645,1.5841872709062048,13.646751026220551,-1.1265474827528508,-7.0,-208.254697
400,13.445074902680346,2.0128705790455226,13.680363713477252,-1.4050888204755316,-7.0,-208.254697
401,13.478687589937048,2.1250353671354083,13.713976400733953,-1.4236591074604188,-7.0,-208.254697
402,13.512300277193749,1.8142668362852286,13.747589087990654,-1.0868451141990871,-7.0,-208.254697
403,13.545912964450448,1.0938081540464775,13.781201775247354,-0.42592286549491165,-7.0,-208.254697
404,13.579525651707149,0.11975377117502206,13.814814462504055,0.39656997028138175,-7.0,-208.254697
405,13.61313833896385,-0.8450631696646024,13.848427149760756,1.1468262077471358,-7.0,-208.254697
406,13.646751026220551,-1.5238764463917487,13.882039837017457,1.617280830482326,-7.0,-208.254697
407,13.680363713477252,-1.7372435706224447,13.61313833896385,-0.7515256069424892,2.0,59.501342
408,13.713976400733953,-1.4785566862064878,13.646751026220551,-1.1265474827528508,2.0,59.501342
409,13.747589087990654,-0.9147355621326199,13.680363713477252,-1.4050888204755316,2.0,59.501342
410,13.781201775247355,-0.3084096086290824,13.713976400733953,-1.4236591074604188,2.0,59.501342
411,13.814814462504055,0.10534940219918756,13.075335342856636,-1.3504399208627553,22.0,654.514762
412,13.848427149760756,0.2299253014571343,13.142560717370039,-0.8834862681153073,21.0,624.764091
413,13.882039837017457,0.14497533364688753,13.17617340462674,-0.20483864606118155,21.0,624.764091
414,13.915652524274158,0.04158198568679291,13.20978609188344,0.5592507775125882,21.0,624.764091
415,13.949265211530859,0.08851637285138951,14.184554022327765,-0.29373381044584884,-7.0,-208.254697
416,13.98287789878756,0.31883316738878204,13.277011466396843,1.470888309847452,21.0,624.764091
417,14.016490586044261,0.616856365440036,13.310624153653544,1.3905360422777648,21.0,624.764091
418,14.050103273300962,0.8071626137942297,13.344236840910245,1.0240816438641827,21.0,624.764091
419,14.083715960557662,0.7687625417643484,13.68036371347725,-1.405088820475517,12.0,357.008052
420,14.117328647814363,0.4906822504036586,13.713976400733952,-1.423659107460418,12.0,357.008052
421,14.150941335071064,0.04735142875155826,13.747589087990653,-1.086845114199105,12.0,357.008052
422,14.184554022327765,-0.4614389722581168,13.781201775247354,-0.42592286549491165,12.0,357.008052
423,14.218166709584466,-0.9489590150551908,13.814814462504055,0.39656997028138175,12.0,357.008052
424,14.251779396841167,-1.3414175315855492,13.848427149760756,1.1468262077471358,12.0,357.008052
425,14.285392084097868,-1.5653728216426515,13.882039837017457,1.617280830482326,12.0,357.008052
426,14.31900477135457,-1.556225924923716,13.915652524274158,1.7104405336412007,12.0,357.008052
427,14.35261745861127,-1.2948887754713574,13.949265211530859,1.4663415539108764,12.0,357.008052
428,14.38623014586797,-0.8425328130251277,13.982877898787558,1.0257662909979717,12.0,357.008052
429,14.41984283312467,-0.32855417545463983,14.01649058604426,0.5567353033723501,12.0,357.008052
430,14.453455520381372,0.1187596586369999,14.05010327330096,0.18527512211412028,12.0,357.008052
431,14.487068207638073,0.4490789926497155,14.083715960557662,-0.040302961559022396,12.0,357.008052
432,14.520680894894774,0.7055531417175465,14.117328647814363,-0.14609529995294684,12.0,357.008052
433,14.554293582151475,0.9628348523481509,14.150941335071064,-0.20363177458654194,12.0,357.008052
434,14.587906269408176,1.2438483820360162,14.823195080205082,-0.16329712863388873,-7.0,-208.254697
435,14.621518956664877,1.4878758289832965,14.856807767461783,-0.24235935847768492,-7.0,-208.254697
436,14.655131643921576,1.591084415932096,14.890420454718482,-0.3967016837525119,-7.0,-208.254697
437,14.688744331178277,1.4803380029543642,14.924033141975183,-0.6408681389344201,-7.0,-208.254697
438,14.722357018434979,1.165634511836329,14.688744331178277,0.5041173179332967,1.0,29.750671
439,14.75596970569168,0.7421065630332274,14.991258516488585,-1.251403737514062,-7.0,-208.254697
440,14.78958239294838,0.3452454259437053,15.024871203745287,-1.4395104579230755,-7.0,-208.254697
441,14.823195080205082,0.08293642748660544,14.78958239294838,-0.11289133707054376,1.0,29.750671
442,14.856807767461783,-0.024042353959276445,14.823195080205082,-0.16329712863388873,1.0,29.750671
443,14.890420454718484,-0.060966241620031406,14.856807767461783,-0.24235935847768492,1.0,29.750671
444,14.924033141975183,-0.17748436458471809,14.890420454718482,-0.3967016837525119,1.0,29.750671
445,14.957645829231884,-0.4959883795354659,14.924033141975183,-0.6408681389344201,1.0,29.750671
446,14.991258516488585,-1.0186627222984117,14.957645829231884,-0.9492806151019054,1.0,29.750671
447,15.024871203745287,-1.5955574580120984,14.991258516488585,-1.251403737514062,1.0,29.750671
448,15.058483891001988,-1.983444719094418,15.024871203745287,-1.4395104579230755,1.0,29.750671
449,15.092096578258689,-1.9654519685374943,15.058483891001988,-1.399463660442151,1.0,29.750671
450,15.12570926551539,-1.4622054614287137,15.092096578258689,-1.0617027382828788,1.0,29.750671
451,15.15932195277209,-0.5755482587701564,15.12570926551539,-0.44981305209972616,1.0,29.750671
452,15.19293464002879,0.4482983600392879,15.159321952772089,0.3054336283234283,1.0,29.750671
453,15.226547327285491,1.3074532517298896,15.19293464002879,1.005298002108217,1.0,29.750671
454,15.260160014542192,1.7460150118407938,15.226547327285491,1.4626506233155285,1.0,29.750671
455,15.293772701798893,1.6415797979551754,15.260160014542192,1.5808149441878407,1.0,29.750671
456,15.327385389055594,1.0577829173775397,15.293772701798893,1.388162136246919,1.0,29.750671
457,15.360998076312296,0.23643305120061192,15.327385389055594,1.0115261968361147,1.0,29.750671
458,15.394610763568997,-0.48837476648755396,15.360998076312296,0.6077522925222364,1.0,29.750671
459,15.428223450825698,-0.8357930313233678,15.394610763568997,0.29355674571775753,1.0,29.750671
460,15.461836138082399,-0.718185261634263,15.428223450825698,0.10824468372518323,1.0,29.750671
461,15.495448825339098,-0.2915653954329975,15.461836138082397,0.019659717593448575,1.0,29.750671
462,15.5290615125958,0.12995146719241438,15.495448825339098,-0.04100856712789148,1.0,29.750671
463,15.5626741998525,0.25881765512158383,15.5290615125958,-0.14041365136977646,1.0,29.750671
464,15.596286887109201,0.006509863020861215,15.5626741998525,-0.3181386352274256,1.0,29.750671
465,15.629899574365902,-0.46892346668110035,15.596286887109201,-0.5780689801207326,1.0,29.750671
466,15.663512261622603,-0.8700890257560037,15.629899574365902,-0.8878395208995231,1.0,29.750671
467,15.697124948879305,-0.9471317935362497,15.663512261622603,-1.180077205583872,1.0,29.750671
468,15.730737636136006,-0.6409542543369681,15.697124948879305,-1.359460710307669,1.0,29.750671
469,15.764350323392705,-0.09771885604534813,15.730737636136004,-1.3258494466837054,1.0,29.750671
470,15.797963010649406,0.4389133569974124,15.764350323392705,-1.0160634657570042,1.0,29.750671
471,15.831575697906107,0.7740555282218371,15.797963010649406,-0.448263890592874,1.0,29.750671
472,15.865188385162808,0.8519536191757758,15.831575697906107,0.2606270543371959,1.0,29.750671
473,15.89880107241951,0.7482492588111511,15.865188385162808,0.9260053564640802,1.0,29.750671
474,15.93241375967621,0.589765006073839,15.89880107241951,1.3675612358703866,1.0,29.750671
475,15.966026446932911,0.4674511168838234,15.93241375967621,1.4852310709668133,1.0,29.750671
476,15.999639134189612,0.40107067919450595,15.966026446932911,1.2968765061056533,1.0,29.750671
477,16.033251821446314,0.3656411030569756,16.63828019206693,1.1008577459206077,-18.0,-535.512078
478,16.066864508703013,0.33827407279506305,16.705505566580328,0.3182551672512755,-19.0,-565.262749
479,16.100477195959716,0.3171401301201697,16.73911825383703,0.08175628283681274,-19.0,-565.262749
480,16.134089883216415,0.30303074062518154,16.77273094109373,-0.03054098235154721,-19.0,-565.262749
481,16.167702570473118,0.27274169974260903,16.806343628350433,-0.08060225308208892,-19.0,-565.262749
482,16.201315257729817,0.17737538071640338,16.839956315607132,-0.14633097944007462,-19.0,-565.262749
483,16.234927944986516,-0.027131805702652764,16.87356900286383,-0.286120213355572,-19.0,-565.262749
484,16.26854063224322,-0.33958732686817994,16.907181690120535,-0.5197858974692086,-19.0,-565.262749
485,16.30215331949992,-0.6964353082099028,16.907181690120535,-0.5197858974692086,-18.0,-535.512078
486,16.33576600675662,-0.995702150190663,16.940794377377237,-0.8228197880865846,-18.0,-535.512078
487,16.36937869401332,-1.1490638495467334,16.974407064633937,-1.1278995317221134,-18.0,-535.512078
488,16.402991381270024,-1.126893164135642,17.00801975189064,-1.3347144978401861,-18.0,-535.512078
489,16.436604068526723,-0.9659667097982935,17.04163243914734,-1.3352349177173208,-18.0,-535.512078
490,16.470216755783422,-0.736934785925269,17.075245126404038,-1.0560438238135936,-18.0,-535.512078
491,16.503829443040125,-0.49631608821938716,17.10885781366074,-0.5034032655535072,-18.0,-535.512078
492,16.537442130296824,-0.25698844518810254,17.14247050091744,0.21605798124078096,-18.0,-535.512078
493,16.571054817553527,0.003677808025507915,17.176083188174143,0.9207208822917008,-18.0,-535.512078
494,16.604667504810227,0.3082277652785455,17.209695875430842,1.4216394515747404,-18.0,-535.512078
495,16.63828019206693,0.6462166864033934,17.915562307821563,1.7381333412619604,-38.0,-1130.525498
496,16.67189287932363,0.9679475814861914,17.949174995078263,1.502188497479666,-38.0,-1130.525498
497,16.70550556658033,1.206988260127902,17.982787682334965,1.0619448969646244,-38.0,-1130.525498
498,16.73911825383703,1.3166125164692835,17.613048122511252,-1.0518776574968964,-26.0,-773.5174460000001
499,16.77273094109373,1.2975973428877914,17.64666080976795,-1.3279694926203502,-26.0,-773.5174460000001
500,16.806343628350433,1.194481998532945,16.772730941093734,-0.0305409823515525,1.0,29.750671
501,16.839956315607132,1.053537616284279,16.806343628350433,-0.08060225308208892,1.0,29.750671
502,16.873569002863835,0.8690299959048289,16.839956315607136,-0.14633097944008938,1.0,29.750671
503,16.907181690120535,0.5663971225973032,16.873569002863835,-0.28612021335558674,1.0,29.750671
504,16.940794377377237,0.05240157767969913,16.940794377377237,-0.8228197880865846,0.0,0.0
505,16.974407064633937,-0.6896398704160798,16.974407064633937,-1.1278995317221134,0.0,0.0
506,17.008019751890636,-1.5291482054666063,17.008019751890636,-1.3347144978401861,0.0,0.0
507,17.04163243914734,-2.212976933780811,17.04163243914734,-1.3352349177173208,0.0,0.0
508,17.075245126404038,-2.492853833616896,17.075245126404038,-1.0560438238135936,0.0,0.0
509,17.10885781366074,-2.2741356546340765,17.10885781366074,-0.5034032655535072,0.0,0.0
510,17.14247050091744,-1.6725225090113074,17.14247050091744,0.21605798124078096,0.0,0.0
511,17.176083188174143,-0.9313747600392255,17.176083188174143,0.9207208822917008,0.0,0.0
512,17.209695875430842,-0.2643696534827892,17.209695875430842,1.4216394515747404,0.0,0.0
513,17.243308562687545,0.25175928724744645,17.243308562687545,1.5999396060071684,0.0,0.0
514,17.276921249944245,0.6571121229792042,17.276921249944245,1.4521332758114003,0.0,0.0
515,17.310533937200944,0.9990437672783657,17.310533937200944,1.0801808479329396,0.0,0.0
516,17.344146624457647,1.247954564828233,17.344146624457647,0.6357844491946792,0.0,0.0
517,17.377759311714346,1.31891086307959,17.377759311714346,0.2518592727705155,0.0,0.0
518,17.41137199897105,1.170236994343114,17.41137199897105,-0.004777109068947231,0.0,0.0
519,17.44498468622775,0.8754604016622124,17.44498468622775,-0.1427990121856973,0.0,0.0
520,17.47859737348445,0.5939228977175474,17.47859737348445,-0.2229566904454144,0.0,0.0
521,17.51221006074115,0.46174318772577544,17.51221006074115,-0.32021847662311803,0.0,0.0
522,17.545822747997853,0.4947236545922686,17.545822747997853,-0.48968669935053016,0.0,0.0
523,17.579435435254553,0.5815929900596951,17.579435435254553,-0.7453472752030763,0.0,0.0
524,17.613048122511252,0.5708814071780756,17.613048122511252,-1.0518776574968964,0.0,0.0
525,17.646660809767955,0.3839700050068217,17.646660809767955,-1.3279694926203793,0.0,0.0
526,17.680273497024654,0.07350139865276017,17.713886184281353,-1.3538232516283466,-1.0,-29.750671
527,17.713886184281357,-0.20813145308082945,17.747498871538056,-0.9468208859112355,-1.0,-29.750671
528,17.747498871538056,-0.30401012393326216,17.781111558794755,-0.2825194839707117,-1.0,-29.750671
529,17.78111155879476,-0.15139716129088726,17.81472424605146,0.500086069099517,-1.0,-29.750671
530,17.81472424605146,0.1715669065693445,17.848336933308158,1.2037041032580225,-1.0,-29.750671
531,17.848336933308158,0.4761802639755706,18.486977991185473,0.7439087303386146,-19.0,-565.262749
532,17.88194962056486,0.5558986907065641,18.520590678442176,1.3229517744217036,-19.0,-565.262749
533,17.91556230782156,0.29394566207942424,18.554203365698875,1.5749955457569311,-19.0,-565.262749
534,17.949174995078263,-0.27183917032071403,18.587816052955578,1.4657698005549797,-19.0,-565.262749
535,17.982787682334962,-0.9630562777499776,18.890330238265886,-0.6200051570862404,-27.0,-803.268117
536,18.016400369591665,-1.5452227725385221,18.92394292552259,-0.9699412708560592,-27.0,-803.268117
537,18.050013056848364,-1.8346214692314116,18.957555612779288,-1.2748019114403104,-27.0,-803.268117
538,18.083625744105067,-1.773097497050564,18.99116830003599,-1.3860027924461888,-27.0,-803.268117
539,18.117238431361766,-1.4414725364668066,19.02478098729269,-1.1901792064252064,-27.0,-803.268117
540,18.150851118618466,-1.012153284013134,19.05839367454939,-0.6693572170402168,-27.0,-803.268117
541,18.18446380587517,-0.6621278667796086,18.823104863752484,-0.20476380144810402,-19.0,-565.262749
542,18.218076493131868,-0.48435594928666076,18.856717551009183,-0.34684394224439785,-19.0,-565.262749
543,18.25168918038857,-0.44323368472551267,18.890330238265886,-0.6200051570862404,-19.0,-565.262749
544,18.28530186764527,-0.40142424943903293,18.923942925522585,-0.9699412708560222,-19.0,-565.262749
545,18.318914554901973,-0.20491048284507993,18.957555612779288,-1.2748019114403104,-19.0,-565.262749
546,18.352527242158672,0.22084500345829183,17.14247050091744,0.21605798124078096,36.0,1071.024156
547,18.386139929415375,0.8163546844885986,17.176083188174143,0.9207208822917008,36.0,1071.024156
548,18.419752616672074,1.4062077724174058,17.209695875430842,1.4216394515747404,36.0,1071.024156
549,18.453365303928773,1.7850037490146247,17.24330856268754,1.5999396060071496,36.0,1071.024156
550,18.486977991185476,1.829823700827031,17.276921249944245,1.4521332758114003,36.0,1071.024156
551,18.520590678442176,1.5763052454994066,17.310533937200944,1.0801808479329396,36.0,1071.024156
552,18.55420336569888,1.2066651126997527,17.344146624457647,0.6357844491946792,36.0,1071.024156
553,18.587816052955578,0.9465270472166669,17.377759311714346,0.2518592727705155,36.0,1071.024156
554,18.62142874021228,0.9272639869272623,17.41137199897105,-0.004777109068947231,36.0,1071.024156
555,18.65504142746898,1.099270784132099,17.44498468622775,-0.1427990121856973,36.0,1071.024156
556,18.68865411472568,1.2544227763786493,17.478597373484448,-0.22295669044540595,36.0,1071.024156
557,18.722266801982382,1.146433467082131,17.51221006074115,-0.32021847662311803,36.0,1071.024156
558,18.75587948923908,0.6331029006261989,17.54582274799785,-0.48968669935051223,36.0,1071.024156
559,18.789492176495784,-0.2448146508948672,17.579435435254553,-0.7453472752030763,36.0,1071.024156
560,18.823104863752484,-1.281447368726699,17.613048122511252,-1.0518776574968964,36.0,1071.024156
561,18.856717551009186,-2.1917121839391895,18.285301867645273,-1.0263752788247116,17.0,505.761407
562,18.890330238265886,-2.715356100561269,18.318914554901973,-1.2881971420975227,17.0,505.761407
563,18.92394292552259,-2.7036645494203433,18.352527242158676,-1.3824387250574701,17.0,505.761407
564,18.957555612779288,-2.167564369583883,18.386139929415375,-1.201483266227546,17.0,505.761407
565,18.991168300035987,-1.2700606322743775,18.419752616672074,-0.7152610441350227,17.0,505.761407
566,19.02478098729269,-0.2603341262968084,18.453365303928777,-0.006441237174623897,17.0,505.761407
567,19.05839367454939,0.6217055504825622,18.486977991185476,0.7439087303386939,17.0,505.761407
568,19.092006361806092,1.2194436461777107,18.52059067844218,1.3229517744217303,17.0,505.761407
569,19.12561904906279,1.477465990714281,18.55420336569888,1.5749955457569578,17.0,505.761407
570,19.159231736319494,1.4144320674400126,18.58781605295558,1.4657698005549398,17.0,505.761407
571,19.192844423576194,1.0927177507676165,18.62142874021228,1.088256513172525,17.0,505.761407
572,19.226457110832897,0.6112586958686285,18.655041427468984,0.6104108052621304,17.0,505.761407
573,19.260069798089596,0.10648493559525364,18.688654114725683,0.19617947592292964,17.0,505.761407
574,19.293682485346295,-0.2731162122912812,18.722266801982382,-0.05968862286993553,17.0,505.761407
575,19.327295172602998,-0.42859521149009566,18.755879489239085,-0.15652938094513968,17.0,505.761407
576,19.360907859859697,-0.3747268246819073,18.789492176495784,-0.1696298117220394,17.0,505.761407
577,19.3945205471164,-0.25235438475674254,18.823104863752487,-0.20476380144811904,17.0,505.761407
578,19.4281332343731,-0.25650183814204974,18.856717551009186,-0.3468439422444129,17.0,505.761407
579,19.461745921629802,-0.504957518853982,18.89033023826589,-0.6200051570862773,17.0,505.761407
580,19.4953586088865,-0.93108722549268,18.92394292552259,-0.9699412708560592,17.0,505.761407
581,19.5289712961432,-1.2932639158190669,18.957555612779288,-1.2748019114403104,17.0,505.761407
582,19.562583983399904,-1.320077608740148,18.99116830003599,-1.3860027924461888,17.0,505.761407
583,19.596196670656603,-0.8994267597316444,19.02478098729269,-1.1901792064252064,17.0,505.761407
584,19.629809357913306,-0.1707265461864562,19.058393674549393,-0.6693572170401384,17.0,505.761407
585,19.663422045170005,0.5525079671971104,19.092006361806092,0.07175502728957192,17.0,505.761407
586,19.697034732426708,0.972922244920674,19.76426010694011,1.1028954444017698,-2.0,-59.501342
587,19.730647419683407,0.9769608860408837,19.79787279419681,1.6221743547624166,-2.0,-59.501342
588,19.76426010694011,0.6752944288000344,19.831485481453512,1.7438853645019656,-2.0,-59.501342
589,19.79787279419681,0.3104845123590475,19.86509816871021,1.482524700452405,-2.0,-59.501342
590,19.83148548145351,0.10859530583788264,19.89871085596691,0.9785812658290456,-2.0,-59.501342
591,19.86509816871021,0.16737623089977546,19.932323543223614,0.426863139435694,-2.0,-59.501342
592,19.89871085596691,0.4317237653033751,19.965936230480313,-0.006503075833915359,-2.0,-59.501342
593,19.932323543223614,0.7481777698985719,19.999548917737016,-0.24169693602811604,-2.0,-59.501342
594,19.965936230480313,0.9515744275941289,20.033161604993715,-0.2999480689363482,-2.0,-59.501342
595,19.999548917737016,0.9333996653886139,20.066774292250418,-0.27829068813623603,-2.0,-59.501342
596,20.033161604993715,0.667389246248548,20.100386979507118,-0.299445829666275,-2.0,-59.501342
597,20.066774292250418,0.20185355717845957,20.13399966676382,-0.45528280804704374,-2.0,-59.501342
598,20.100386979507118,-0.3583279917970135,20.16761235402052,-0.7611857254555755,-2.0,-59.501342
599,20.133999666763817,-0.8708198792769973,20.20122504127722,-1.1368641751746313,-2.0,-59.501342
600,20.16761235402052,-1.1841854312740874,20.234837728533922,-1.4256465419102933,-2.0,-59.501342
601,20.20122504127722,-1.1820807626011733,20.26845041579062,-1.4540332872609019,-2.0,-59.501342
602,20.234837728533922,-0.8315360639413059,20.302063103047324,-1.1141037261453446,-2.0,-59.501342
603,20.26845041579062,-0.20844514906072062,20.335675790304023,-0.43141197175739837,-2.0,-59.501342
604,20.302063103047324,0.5202712920290409,20.369288477560726,0.4227954625474055,-2.0,-59.501342
605,20.335675790304023,1.1542909318809265,20.402901164817425,1.1922882861946282,-2.0,-59.501342
606,20.369288477560723,1.5335376833514514,20.436513852074125,1.644559093525922,-2.0,-59.501342
607,20.402901164817425,1.5984825973612418,20.470126539330828,1.67096508847337,-2.0,-59.501342
608,20.436513852074125,1.4106196470627987,20.470126539330824,1.670965088473367,-1.0,-29.750671
609,20.470126539330828,1.116143483247644,20.503739226587527,1.3254351651377403,-1.0,-29.750671
610,20.503739226587527,0.859912221049668,20.772640724641136,-0.5617725389874054,-8.0,-238.005368
611,20.53735191384423,0.6929727597162956,20.80625341189784,-0.9326479664189107,-8.0,-238.005368
612,20.57096460110093,0.5365566856057223,20.839866099154538,-1.2674175103118637,-8.0,-238.005368
613,20.604577288357632,0.23688584355243247,20.87347878641124,-1.3826971303034186,-8.0,-238.005368
614,20.63818997561433,-0.31951032364374415,20.90709147366794,-1.1439066204731376,-8.0,-238.005368
615,20.67180266287103,-1.107674137507728,20.94070416092464,-0.5419793053955321,-8.0,-238.005368
616,20.705415350127733,-1.9522753777769786,20.974316848181342,0.2797994402501437,-8.0,-238.005368
617,20.739028037384433,-2.6130360813234232,21.00792953543804,1.0718707731751018,-8.0,-238.005368
618,20.772640724641136,-2.9120109590765515,20.839866099154538,-1.2674175103118637,-2.0,-59.501342
619,20.806253411897835,-2.8185480213832097,20.873478786411237,-1.3826971303034439,-2.0,-59.501342
620,20.839866099154538,-2.4393666186732634,20.90709147366794,-1.1439066204731376,-2.0,-59.501342
621,20.873478786411237,-1.9299989063185614,20.94070416092464,-0.5419793053955321,-2.0,-59.501342
622,20.907091473667936,-1.3976050099461608,20.97431684818134,0.27979944025006,-2.0,-59.501342
623,20.94070416092464,-0.8634188032047656,21.00792953543804,1.0718707731751018,-2.0,-59.501342
624,20.97431684818134,-0.29995236062539327,21.04154222269474,1.5821284930480322,-2.0,-59.501342
625,21.00792953543804,0.3004625781926743,21.075154909951443,1.6663461448322814,-2.0,-59.501342
626,21.04154222269474,0.8868601201501922,21.108767597208143,1.3473381178141166,-2.0,-59.501342
627,21.075154909951443,1.370785761824305,21.142380284464846,0.7933716786276518,-2.0,-59.501342
628,21.108767597208143,1.6859567816589625,21.175992971721545,0.2310487941092725,-2.0,-59.501342
629,21.142380284464846,1.830896122232176,21.209605658978248,-0.16000543614877177,-2.0,-59.501342
630,21.175992971721545,1.852117891009793,21.243218346234947,-0.3197080493958204,-2.0,-59.501342
631,21.209605658978244,1.7803705657478361,21.276831033491646,-0.31731532777345606,-2.0,-59.501342
632,21.243218346234947,1.5808045734525804,21.31044372074835,-0.2992022630040249,-2.0,-59.501342
633,21.276831033491646,1.1733330344147643,21.34405640800505,-0.40193492470683834,-2.0,-59.501342
634,21.31044372074835,0.5234483821070999,21.37766909526175,-0.6715576720588593,-2.0,-59.501342
635,21.34405640800505,-0.26134878641491854,21.41128178251845,-1.0272883196057858,-2.0,-59.501342
636,21.37766909526175,-0.9182451852997436,21.444894469775154,-1.2897926240481012,-2.0,-59.501342
637,21.41128178251845,-1.140933586566194,21.478507157031853,-1.2659749593500964,-2.0,-59.501342
638,21.444894469775154,-0.7627489936753272,21.512119844288556,-0.853371830370043,-2.0,-59.501342
639,21.478507157031853,0.11308376791492684,21.545732531545255,-0.11142275174682621,-2.0,-59.501342
640,21.512119844288552,1.1374163907197812,21.579345218801954,0.7432716070059366,-2.0,-59.501342
641,21.545732531545255,1.8890968687173488,21.612957906058657,1.4238417112859958,-2.0,-59.501342
642,21.579345218801954,2.090880157616502,21.646570593315356,1.7019749211163335,-2.0,-59.501342
643,21.612957906058657,1.7357634140604814,21.68018328057206,1.5114209038435378,-2.0,-59.501342
644,21.646570593315356,1.056734793431026,21.71379596782876,0.9711345693852265,-2.0,-59.501342
645,21.68018328057206,0.37313961018398933,21.37766909526175,-0.6715576720588593,9.0,267.756039
646,21.71379596782876,-0.08298925637550693,21.41128178251845,-1.0272883196057858,9.0,267.756039
647,21.747408655085458,-0.2590863596938159,21.44489446977515,-1.2897926240480735,9.0,267.756039
648,21.78102134234216,-0.25913738874276426,21.478507157031853,-1.2659749593500964,9.0,267.756039
649,21.81463402959886,-0.2503519496146395,21.512119844288552,-0.8533718303701214,9.0,267.756039
650,21.848246716855563,-0.3709084834438358,21.915472091368965,-0.4502274629959804,-2.0,-59.501342
651,21.881859404112262,-0.6785340897760175,21.949084778625664,-0.6005302512191107,-2.0,-59.501342
652,21.915472091368965,-1.1365765347065213,21.949084778625664,-0.6005302512191107,-1.0,-29.750671
653,21.949084778625664,-1.6228962216456937,21.982697465882364,-0.8729996672260334,-1.0,-29.750671
654,21.982697465882367,-1.9643795471323493,22.016310153139067,-1.1180490515586188,-1.0,-29.750671
655,22.016310153139067,-2.0080214669251992,22.049922840395766,-1.1435555743397938,-1.0,-29.750671
656,22.049922840395766,-1.7112575701910535,22.083535527652465,-0.8208159777222954,-1.0,-29.750671
657,22.08353552765247,-1.1924477075226412,22.117148214909168,-0.1683957361772747,-1.0,-29.750671
658,22.117148214909168,-0.6832777957788179,22.150760902165867,0.6346507680314706,-1.0,-29.750671
659,22.15076090216587,-0.39117901110186404,22.18437358942257,1.320608213962919,-1.0,-29.750671
660,22.18437358942257,-0.3616293541657432,22.21798627667927,1.6562319790258926,-1.0,-29.750671
661,22.217986276679273,-0.44753815056912266,22.251598963935972,1.5512641052615606,-1.0,-29.750671
662,22.251598963935972,-0.41884061515600857,22.28521165119267,1.0935426583566312,-1.0,-29.750671
663,22.285211651192675,-0.13705445698443086,22.318824338449375,0.49460725626893454,-1.0,-29.750671
664,22.318824338449375,0.33324789787111764,22.352437025706074,-0.020498146811835198,-1.0,-29.750671
665,22.352437025706074,0.7580028025477523,22.386049712962773,-0.3188720756732968,-1.0,-29.750671
666,22.386049712962777,0.888120079340729,22.419662400219476,-0.408480711914341,-1.0,-29.750671
667,22.419662400219476,0.6293413557941335,22.453275087476175,-0.41058244356302087,-1.0,-29.750671
668,22.45327508747618,0.11962718536279404,22.755789272786487,1.3564619752593567,-9.0,-267.756039
669,22.486887774732878,-0.33157613897822485,22.789401960043186,1.6941906803134685,-9.0,-267.756039
670,22.52050046198958,-0.40931425704343194,22.82301464729989,1.5853234673772176,-9.0,-267.756039
671,22.55411314924628,0.025895747594108596,22.85662733455659,1.1245587071629901,-9.0,-267.756039
672,22.58772583650298,0.8449495477886159,22.890240021813288,0.5242006725727815,-9.0,-267.756039
673,22.621338523759682,1.7041637358042523,22.92385270906999,0.00491094032275202,-9.0,-267.756039
674,22.65495121101638,2.2227974638267027,22.95746539632669,-0.30530051986380663,-9.0,-267.756039
675,22.688563898273085,2.1852556973300574,22.991078083583393,-0.4151168340131804,-9.0,-267.756039
676,22.722176585529784,1.650333023214411,23.024690770840092,-0.4408542571880828,-9.0,-267.756039
677,22.755789272786487,0.9026282059208176,23.024690770840095,-0.4408542571880916,-8.0,-238.005368
678,22.789401960043186,0.2754666114840476,22.85662733455659,1.1245587071629901,-2.0,-59.501342
679,22.82301464729989,-0.04523145795059182,22.89024002181329,0.5242006725727266,-2.0,-59.501342
680,22.85662733455659,-0.11208206407366388,23.159141519866896,-1.2944701199384026,-9.0,-267.756039
681,22.890240021813288,-0.14637857384048553,22.386049712962773,-0.3188720756732968,15.0,446.260065
682,22.92385270906999,-0.3612291259008712,22.991078083583393,-0.4151168340131804,-2.0,-59.501342
683,22.95746539632669,-0.8035562684388411,23.024690770840092,-0.4408542571880828,-2.0,-59.501342
684,22.991078083583393,-1.320299268227372,23.058303458096795,-0.5244025685344145,-2.0,-59.501342
685,23.024690770840092,-1.6604665837073704,23.091916145353494,-0.741867560483884,-2.0,-59.501342
686,23.058303458096795,-1.6331653627174365,23.125528832610197,-1.049341596492755,-2.0,-59.501342
687,23.091916145353494,-1.218463882415293,23.159141519866896,-1.2944701199384026,-2.0,-59.501342
688,23.125528832610197,-0.5751757708348588,23.1927542071236,-1.2913379756482877,-2.0,-59.501342
689,23.159141519866896,0.0445983600273738,23.2263668943803,-0.923692346429421,-2.0,-59.501342
690,23.192754207123595,0.42427637494176695,23.259979581636998,-0.22289920764367593,-2.0,-59.501342
691,23.2263668943803,0.49215075547107506,23.2935922688937,0.6247647287395435,-2.0,-59.501342
692,23.259979581636998,0.3531614195485357,23.3272049561504,1.351230639258352,-2.0,-59.501342
693,23.2935922688937,0.2173434063469976,23.360817643407103,1.7247862357411121,-2.0,-59.501342
694,23.3272049561504,0.26126110668113467,23.394430330663802,1.6514491425594178,-2.0,-59.501342
695,23.360817643407103,0.5110353631060958,23.428043017920505,1.207849014306105,-2.0,-59.501342
696,23.394430330663802,0.8270015326248397,23.461655705177204,0.5933397499551873,-2.0,-59.501342
697,23.4280430179205,0.9992334979751863,23.495268392433903,0.031606958145875406,-2.0,-59.501342
698,23.461655705177204,0.8867103881578332,23.528881079690606,-0.3269015541501217,-2.0,-59.501342
699,23.495268392433903,0.506800412554779,23.562493766947306,-0.4578898870474866,-2.0,-59.501342
700,23.528881079690606,0.016260834883527364,23.59610645420401,-0.4535358655978986,-2.0,-59.501342
701,23.562493766947306,-0.40417626556573155,23.629719141460708,-0.4607435071109995,-2.0,-59.501342
702,23.59610645420401,-0.6806617840189341,23.66333182871741,-0.5975327904703174,-2.0,-59.501342
703,23.629719141460708,-0.8909645776772405,23.69694451597411,-0.8844930192313364,-2.0,-59.501342
704,23.66333182871741,-1.1786060505839964,23.730557203230813,-1.2222400385734657,-2.0,-59.501342
705,23.69694451597411,-1.5975307274321984,23.764169890487512,-1.4287261495931989,-2.0,-59.501342
706,23.73055720323081,-2.0163754068714774,23.79778257774421,-1.3249993696226454,-2.0,-59.501342
707,23.764169890487512,-2.171238110242339,23.831395265000914,-0.8321728414936401,-2.0,-59.501342
708,23.79778257774421,-1.8339841214537425,24.47003632287823,-0.049835757337269755,-20.0,-595.01342
709,23.831395265000914,-0.9703812159374011,24.503649010134932,0.816111874995396,-20.0,-595.01342
710,23.865007952257614,0.22031282771274838,24.53726169739163,1.455325977564703,-20.0,-595.01342
711,23.898620639514316,1.3977332223425434,24.570874384648334,1.6709827343566699,-20.0,-595.01342
712,23.932233326771016,2.237323309131136,24.604487071905034,1.4376370489794947,-20.0,-595.01342
713,23.96584601402772,2.5636746685944356,24.638099759161737,0.9028909871612358,-20.0,-595.01342
714,23.999458701284418,2.3981645907885896,24.671712446418436,0.30604267866002755,-20.0,-595.01342
715,24.033071388541117,1.908319404003549,24.705325133675135,-0.13934818090336681,-20.0,-595.01342
716,24.06668407579782,1.2994277221991901,24.738937820931838,-0.33741027923398925,-20.0,-595.01342
717,24.10029676305452,0.7167173853763008,24.772550508188537,-0.3350218019812881,-20.0,-595.01342
718,24.133909450311222,0.20954747464289447,24.80616319544524,-0.2764381878793959,-20.0,-595.01342
719,24.16752213756792,-0.23788537971654386,24.83977588270194,-0.3165680179306222,-20.0,-595.01342
720,24.201134824824624,-0.6436317991915443,24.873388569958642,-0.5356035937566992,-20.0,-595.01342
721,24.234747512081324,-0.9737244409853067,24.90700125721534,-0.891926347581728,-20.0,-595.01342
722,24.268360199338023,-1.125247954265292,24.94061394447204,-1.2325130173297167,-20.0,-595.01342
723,24.301972886594726,-0.9647373636513029,24.974226631728744,-1.35807844944726,-20.0,-595.01342
724,24.335585573851425,-0.41803178170460653,24.402810948364827,-1.3769705064409483,-2.0,-59.501342
725,24.369198261108128,0.435959724593949,24.43642363562153,-0.8610301437328988,-2.0,-59.501342
726,24.402810948364827,1.3407935753618503,24.47003632287823,-0.049835757337269755,-2.0,-59.501342
727,24.43642363562153,1.9456001263237086,24.503649010134932,0.816111874995396,-2.0,-59.501342
728,24.47003632287823,1.9619641577042273,24.53726169739163,1.455325977564703,-2.0,-59.501342
729,24.503649010134932,1.3118472322180235,24.570874384648334,1.6709827343566699,-2.0,-59.501342
730,24.53726169739163,0.18613718025932555,24.604487071905034,1.4376370489794947,-2.0,-59.501342
731,24.57087438464833,-1.024555426173451,24.638099759161733,0.9028909871612989,-2.0,-59.501342
732,24.604487071905034,-1.9041471120666131,24.671712446418436,0.30604267866002755,-2.0,-59.501342
733,24.638099759161733,-2.2098587891619585,24.705325133675135,-0.13934818090336681,-2.0,-59.501342
734,24.671712446418436,-1.9905895753953078,24.738937820931838,-0.33741027923398925,-2.0,-59.501342
735,24.705325133675135,-1.551823260506324,24.772550508188537,-0.3350218019812881,-2.0,-59.501342
736,24.738937820931838,-1.2736053420243623,24.80616319544524,-0.2764381878793959,-2.0,-59.501342
737,24.772550508188537,-1.3760900050522833,24.83977588270194,-0.3165680179306222,-2.0,-59.501342
738,24.80616319544524,-1.773367488305679,24.873388569958642,-0.5356035937566992,-2.0,-59.501342
739,24.83977588270194,-2.1194611907802634,24.90700125721534,-0.891926347581728,-2.0,-59.501342
740,24.87338856995864,-2.0306875748862874,24.94061394447204,-1.2325130173297167,-2.0,-59.501342
741,24.90700125721534,-1.339665570786845,24.974226631728744,-1.35807844944726,-2.0,-59.501342
742,24.94061394447204,-0.20651222921091086,25.007839318985443,-1.118442608229126,-2.0,-59.501342
743,24.974226631728744,0.9833315568909464,25.646480376862762,-0.24988399090609142,-20.0,-595.01342
744,25.007839318985443,1.8532301356864853,25.68009306411946,0.6513214489403871,-20.0,-595.01342
745,25.041452006242146,2.2392265808184284,25.713705751376164,1.4223265715769586,-20.0,-595.01342
746,25.075064693498845,2.2383981865970815,25.747318438632863,1.819938586906298,-20.0,-595.01342
747,25.108677380755545,2.0905889389787564,25.780931125889563,1.7473121415712125,-20.0,-595.01342
748,25.142290068012247,1.9924194870604464,25.814543813146265,1.2883967234017528,-20.0,-595.01342
749,25.175902755268947,1.9761061557921618,25.848156500402965,0.6558404660831048,-20.0,-595.01342
750,25.20951544252565,1.9251621918072053,25.881769187659668,0.08439708285295897,-20.0,-595.01342
751,25.24312812978235,1.694723339819685,25.915381874916367,-0.2739233654336876,-20.0,-595.01342
752,25.27674081703905,1.2343195678626393,25.94899456217307,-0.40416134724696484,-20.0,-595.01342
753,25.31035350429575,0.6243567803999927,25.98260724942977,-0.41245919019931543,-20.0,-595.01342
754,25.343966191552454,0.017793400376057956,26.016219936686472,-0.4534252780450387,-20.0,-595.01342
755,25.377578878809153,-0.44878135591634327,26.04983262394317,-0.6377461543953491,-20.0,-595.01342
756,25.411191566065852,-0.7089053867662846,26.08344531119987,-0.9636552591240874,-20.0,-595.01342
757,25.444804253322555,-0.7718322082463701,26.117057998456573,-1.3053369094047271,-20.0,-595.01342
758,25.478416940579255,-0.7034401251869487,26.150670685713273,-1.4672039339485312,-20.0,-595.01342
759,25.512029627835958,-0.596762308499544,25.545642315092657,-1.3967657118266021,-1.0,-29.750671
760,25.545642315092657,-0.5315849897365286,25.579255002349356,-1.3939946397400045,-1.0,-29.750671
761,25.57925500234936,-0.5373600658425267,25.61286768960606,-0.9982532217239407,-1.0,-29.750671
762,25.61286768960606,-0.5902483089584943,25.64648037686276,-0.24988399090618668,-1.0,-29.750671
763,25.64648037686276,-0.650918317570735,25.680093064119458,0.6513214489402919,-1.0,-29.750671
764,25.68009306411946,-0.7045350897215817,25.71370575137616,1.4223265715769167,-1.0,-29.750671
765,25.71370575137616,-0.7592917372331235,25.74731843863286,1.819938586906256,-1.0,-29.750671
766,25.747318438632863,-0.8081605929912264,26.990987867130794,1.1539868269916052,-37.0,-1100.774827
767,25.780931125889563,-0.8033247847084161,27.024600554387494,0.5461180962103575,-37.0,-1100.774827
768,25.814543813146265,-0.6807386236353995,27.058213241644197,0.01623128413389837,-37.0,-1100.774827
769,25.848156500402965,-0.41927788169491315,25.915381874916367,-0.2739233654336876,-2.0,-59.501342
770,25.881769187659668,-0.08438208955179377,25.94899456217307,-0.40416134724696484,-2.0,-59.501342
771,25.915381874916367,0.18119213209368898,25.98260724942977,-0.41245919019931543,-2.0,-59.501342
772,25.948994562173066,0.2203485063816951,26.01621993668647,-0.4534252780450192,-2.0,-59.501342
773,25.98260724942977,-0.05033620763217076,26.04983262394317,-0.6377461543953491,-2.0,-59.501342
774,26.01621993668647,-0.5718611852102133,26.08344531119987,-0.9636552591240874,-2.0,-59.501342
775,26.04983262394317,-1.1381856931129817,26.117057998456573,-1.3053369094047271,-2.0,-59.501342
776,26.08344531119987,-1.475051536578679,26.150670685713273,-1.4672039339485312,-2.0,-59.501342
777,26.117057998456573,-1.3704428195408132,26.184283372969976,-1.2824247993555047,-2.0,-59.501342
778,26.150670685713273,-0.7824857228333547,26.217896060226675,-0.7089308508542729,-2.0,-59.501342
779,26.184283372969976,0.14100848844685707,26.251508747483378,0.12898634177053964,-2.0,-59.501342
780,26.217896060226675,1.137968916683384,26.285121434740077,0.9816521842512234,-2.0,-59.501342
781,26.251508747483374,1.9472595462601172,26.318734121996776,1.581352608905497,-2.0,-59.501342
782,26.285121434740077,2.3936226326372396,26.35234680925348,1.7607190024697066,-2.0,-59.501342
783,26.318734121996776,2.4115420522359843,26.38595949651018,1.5197890629673183,-2.0,-59.501342
784,26.35234680925348,2.0296002126194526,26.41957218376688,1.0099367973680455,-2.0,-59.501342
785,26.38595949651018,1.3515464726947886,26.45318487102358,0.4497678636132977,-2.0,-59.501342
786,26.41957218376688,0.5420815505176932,26.486797558280283,0.021110458601176482,-2.0,-59.501342
787,26.45318487102358,-0.2003191841865817,26.48679755828028,0.021110458601200255,-1.0,-29.750671
788,26.48679755828028,-0.692779680999849,26.52041024553698,-0.20380337077577762,-1.0,-29.750671
789,26.520410245536983,-0.8255472228292274,26.554022932793682,-0.2749394909252328,-1.0,-29.750671
790,26.554022932793682,-0.604753014596754,26.58763562005038,-0.318478017699313,-1.0,-29.750671
791,26.587635620050385,-0.16199972358082348,26.621248307307084,-0.45817232144137726,-1.0,-29.750671
792,26.621248307307084,0.28123206070887324,26.654860994563784,-0.740684216853647,-1.0,-29.750671
793,26.654860994563787,0.49263508188924193,26.688473681820486,-1.0983823135508037,-1.0,-29.750671
794,26.688473681820486,0.32527361668050947,26.688473681820486,-1.0983823135508037,0.0,0.0
795,26.72208636907719,-0.21141299153024268,26.72208636907719,-1.3688170388976144,0.0,0.0
796,26.75569905633389,-0.9396151071734911,26.75569905633389,-1.3676262091350877,0.0,0.0
797,26.789311743590588,-1.5712187726460287,26.789311743590588,-0.9858130745016601,0.0,0.0
798,26.82292443084729,-1.8225578248792453,26.82292443084729,-0.263760539767258,0.0,0.0
799,26.85653711810399,-1.545323471031333,26.85653711810399,0.6025496310816337,0.0,0.0
800,26.890149805360693,-0.8107241064515046,26.890149805360693,1.336208912673809,0.0,0.0
801,26.923762492617392,0.10877841394218823,26.923762492617392,1.7017350975202432,0.0,0.0
802,26.957375179874095,0.8650579315755978,26.957375179874095,1.6107134872241715,0.0,0.0
803,26.990987867130794,1.204090897831702,26.990987867130794,1.1539868269916052,0.0,0.0
804,27.024600554387497,1.0842362710926388,27.024600554387497,0.5461180962102932,0.0,0.0
805,27.058213241644197,0.6767492062419066,27.058213241644197,0.01623128413389837,0.0,0.0
806,27.091825928900896,0.2500528951482327,27.091825928900896,-0.2960632007256002,0.0,0.0
807,27.1254386161576,0.005846910261121418,27.1254386161576,-0.39007080863035104,0.0,0.0
808,27.159051303414298,-0.03182382752421548,27.159051303414298,-0.3809485219360887,0.0,0.0
809,27.192663990671,-0.0009902084400787627,27.192663990671,-0.421494016142328,0.0,0.0
810,27.2262766779277,-0.07129651558013096,27.2262766779277,-0.6091945804527786,0.0,0.0
811,27.259889365184403,-0.2952453858890253,26.68847368182049,-1.0983823135508324,17.0,505.761407
812,27.293502052441102,-0.5527242173279654,26.72208636907719,-1.3688170388976144,17.0,505.761407
813,27.3271147396978,-0.6320218243557703,26.722086369077186,-1.3688170388975858,18.0,535.512078
814,27.360727426954504,-0.3905701273145408,26.75569905633389,-1.3676262091350877,18.0,535.512078
815,27.394340114211204,0.12102671240121733,26.789311743590588,-0.9858130745016601,18.0,535.512078
816,27.427952801467907,0.6644555693390868,26.82292443084729,-0.263760539767258,18.0,535.512078
817,27.461565488724606,0.9512633850370666,26.85653711810399,0.6025496310816337,18.0,535.512078
818,27.49517817598131,0.8238756689577575,26.890149805360693,1.336208912673809,18.0,535.512078
819,27.528790863238008,0.36042160106146637,26.923762492617392,1.7017350975202432,18.0,535.512078
820,27.56240355049471,-0.16908317836170642,26.957375179874095,1.6107134872241715,18.0,535.512078
821,27.59601623775141,-0.4707161279159235,26.990987867130794,1.1539868269916052,18.0,535.512078
822,27.62962892500811,-0.40966775436575603,27.024600554387494,0.5461180962103575,18.0,535.512078
823,27.663241612264812,-0.08893535764383786,27.058213241644197,0.01623128413389837,18.0,535.512078
824,27.69685429952151,0.22159326869603016,27.091825928900896,-0.2960632007256002,18.0,535.512078
825,27.730466986778215,0.25132721790862816,27.730466986778215,-0.3519903574319192,0.0,0.0
826,27.764079674034914,-0.11382356468485286,27.764079674034914,-0.3712871000338931,0.0,0.0
827,27.797692361291617,-0.7649021695490467,27.797692361291617,-0.5237644760148837,0.0,0.0
828,27.831305048548316,-1.4171661307569692,27.831305048548316,-0.8254426080170707,0.0,0.0
829,27.86491773580502,-1.7426486587121741,27.86491773580502,-1.1684487021540453,0.0,0.0
830,27.898530423061718,-1.5279398235528752,27.898530423061718,-1.3624510191264787,0.0,0.0
831,27.932143110318417,-0.7849010831975025,27.932143110318417,-1.2271443910092108,0.0,0.0
832,27.96575579757512,0.24330723644384358,27.96575579757512,-0.6951201398533323,0.0,0.0
833,27.99936848483182,1.1906945773460196,27.99936848483182,0.12946103441300358,0.0,0.0
834,28.032981172088522,1.7385820946946158,28.032981172088522,0.9962619061963288,0.0,0.0
835,28.06659385934522,1.7582209322864613,28.06659385934522,1.614609484372698,0.0,0.0
836,28.100206546601925,1.3542287542380511,28.100206546601925,1.787239160935026,0.0,0.0
837,28.133819233858624,0.794899502218499,28.133819233858624,1.4991539402716112,0.0,0.0
838,28.167431921115323,0.37395524166082067,27.797692361291613,-0.5237644760148676,11.0,327.257381
839,28.201044608372026,0.2758589891260045,27.831305048548316,-0.8254426080170707,11.0,327.257381
840,28.234657295628725,0.5039198918183522,27.864917735805015,-1.1684487021540089,11.0,327.257381
841,28.26826998288543,0.8909971791353269,27.898530423061718,-1.3624510191264787,11.0,327.257381
842,28.301882670142128,1.1757455001358261,27.932143110318417,-1.2271443910092108,11.0,327.257381
843,28.33549535739883,1.1115293344520576,27.96575579757512,-0.6951201398533323,11.0,327.257381
844,28.36910804465553,0.5729168237080678,27.99936848483182,0.12946103441300358,11.0,327.257381
845,28.402720731912233,-0.3762911599787628,28.032981172088522,0.9962619061963288,11.0,327.257381
846,28.436333419168932,-1.4854459367512356,28.06659385934522,1.614609484372698,11.0,327.257381
847,28.46994610642563,-2.4023565893398757,28.10020654660192,1.7872391609350078,11.0,327.257381
848,28.503558793682334,-2.817331218689592,28.133819233858624,1.4991539402716112,11.0,327.257381
849,28.537171480939033,-2.6015731192698364,28.73884760447924,1.182824745495394,-6.0,-178.504026
850,28.570784168195736,-1.8630359874955236,28.772460291735943,0.5420380204152113,-6.0,-178.504026
851,28.604396855452435,-0.883062816067583,28.806072978992642,-0.006562011371431789,-6.0,-178.504026
852,28.63800954270914,0.02816554523875133,28.839685666249345,-0.33745522944815265,-6.0,-178.504026
853,28.671622229965838,0.6676341067386888,28.873298353506044,-0.46297083199743144,-6.0,-178.504026
854,28.70523491722254,0.9920979396187549,28.906911040762747,-0.502131491985287,-6.0,-178.504026
855,28.73884760447924,1.0788988123913739,28.940523728019446,-0.5979843646663001,-6.0,-178.504026
856,28.77246029173594,1.044872809213853,28.974136415276146,-0.8255544989590594,-6.0,-178.504026
857,28.806072978992642,0.9791641480116371,28.436333419168932,-1.1287510792734488,11.0,327.257381
858,28.83968566624934,0.9121981591125989,28.46994610642563,-1.3805659888492232,11.0,327.257381
859,28.873298353506044,0.8149770975290206,28.503558793682334,-1.3288119498681839,11.0,327.257381
860,28.906911040762743,0.6215873964147779,28.537171480939033,-0.874093578311239,11.0,327.257381
861,28.940523728019446,0.2739826244619437,29.142199851559653,-0.22355279044137527,-6.0,-178.504026
862,28.974136415276146,-0.22311476163842675,29.175812538816352,0.633505055584347,-6.0,-178.504026
863,29.007749102532845,-0.7702671712178574,29.20942522607305,1.344447267610408,-6.0,-178.504026
864,29.041361789789548,-1.1965956433484628,29.243037913329754,1.6862777047708963,-6.0,-178.504026
865,29.074974477046247,-1.3362856802598495,29.276650600586454,1.5880354524908655,-6.0,-178.504026
866,29.10858716430295,-1.114640403101855,29.310263287843156,1.1519858907673095,-6.0,-178.504026
867,29.14219985155965,-0.5882717063130227,28.77246029173594,0.5420380204152693,11.0,327.257381
868,29.175812538816352,0.08496557228991135,28.806072978992642,-0.006562011371431789,11.0,327.257381
869,29.20942522607305,0.7225051365103574,29.411101349613258,-0.17876068741632894,-6.0,-178.504026
870,29.243037913329754,1.1910345663339423,29.44471403686996,-0.2951406685981715,-6.0,-178.504026
871,29.276650600586454,1.441030679608156,29.47832672412666,-0.35957534680224634,-6.0,-178.504026
872,29.310263287843153,1.4960280210781238,28.940523728019443,-0.59798436466629,11.0,327.257381
873,29.343875975099856,1.4148411769961713,28.974136415276146,-0.8255544989590594,11.0,327.257381
874,29.377488662356555,1.2498120485248918,29.007749102532845,-1.1370394308794667,11.0,327.257381
875,29.411101349613258,1.0173608932938392,29.041361789789548,-1.3747623647685847,11.0,327.257381
876,29.444714036869957,0.6934145436527436,29.074974477046247,-1.3502055781849704,11.0,327.257381
877,29.47832672412666,0.24249688988355564,29.10858716430295,-0.951802238565145,11.0,327.257381
878,29.51193941138336,-0.32992564419133147,29.713615534923566,-0.03763382327357437,-6.0,-178.504026
879,29.545552098640062,-0.9385454049785179,29.74722822218027,0.762890219877476,-6.0,-178.504026
880,29.57916478589676,-1.430553679596936,29.780840909436968,1.3637830116249567,-6.0,-178.504026
881,29.61277747315346,-1.6519191412566145,29.814453596693667,1.578669231511784,-6.0,-178.504026
882,29.646390160410164,-1.5297295901446124,29.84806628395037,1.381962415557972,-6.0,-178.504026
883,29.680002847666863,-1.1211825596256508,29.88167897120707,0.9076798392698516,-6.0,-178.504026
884,29.713615534923566,-0.5990958732673973,29.915291658463772,0.37116527895184764,-6.0,-178.504026
885,29.747228222180265,-0.17652682980932846,29.94890434572047,-0.04001146401554078,-6.0,-178.504026
886,29.780840909436968,-0.005048497190084544,29.982517032977174,-0.24869660342772382,-6.0,-178.504026
887,29.814453596693667,-0.0985003109975615,30.016129720233874,-0.30627301524042766,-6.0,-178.504026
888,29.848066283950367,-0.3252891934865141,30.049742407490573,-0.3431302858902383,-6.0,-178.504026
889,29.88167897120707,-0.4795347896521947,30.083355094747276,-0.4806352635514339,-6.0,-178.504026
890,29.91529165846377,-0.39742709820305633,30.116967782003975,-0.7503423969932163,-6.0,-178.504026
891,29.94890434572047,-0.05360560283454696,29.915291658463772,0.37116527895184764,1.0,29.750671
892,29.98251703297717,0.41902575553308286,29.94890434572047,-0.04001146401554078,1.0,29.750671
893,30.016129720233874,0.7948382761314067,29.982517032977174,-0.24869660342772382,1.0,29.750671
894,30.049742407490573,0.8683487021821263,30.016129720233874,-0.30627301524042766,1.0,29.750671
895,30.083355094747276,0.5616125845836983,30.016129720233874,-0.30627301524042766,2.0,59.501342
896,30.116967782003975,-0.02039897278898287,30.31864390554418,0.881824676612086,-6.0,-178.504026
897,30.150580469260674,-0.6204542165688007,30.35225659280088,1.4125736116549759,-6.0,-178.504026
898,30.184193156517377,-0.9472291588036887,30.385869280057584,1.530292240292382,-6.0,-178.504026
899,30.217805843774077,-0.8269687557338389,30.150580469260674,-1.0622425418954835,2.0,59.501342
900,30.25141853103078,-0.298723036407517,30.184193156517377,-1.2414384922684918,2.0,59.501342
901,30.28503121828748,0.40932282419225857,30.217805843774077,-1.1193787758118576,2.0,59.501342
902,30.31864390554418,1.0082284697903339,30.25141853103078,-0.6349802958651881,2.0,59.501342
903,30.35225659280088,1.3001719086216708,30.28503121828748,0.11053154675771816,2.0,59.501342
904,30.38586928005758,1.261739293786186,30.318643905544178,0.8818246766120044,2.0,59.501342
905,30.419481967314283,1.0158442757496746,30.35225659280088,1.4125736116549759,2.0,59.501342
906,30.453094654570982,0.7255868349412633,30.38586928005758,1.5302922402924133,2.0,59.501342
907,30.486707341827685,0.49279253292983044,30.419481967314283,1.2346178193092416,2.0,59.501342
908,30.520320029084385,0.3267286792008674,30.453094654570982,0.6872413822992912,2.0,59.501342
909,30.553932716341087,0.18093092344884634,30.486707341827685,0.12244972841706152,2.0,59.501342
910,30.587545403597787,0.006350621331034113,30.520320029084385,-0.27024401494927147,2.0,59.501342
911,30.62115809085449,-0.2198960720305632,30.553932716341087,-0.4293127132060024,2.0,59.501342
912,30.65477077811119,-0.491896669958679,30.587545403597787,-0.4310406395422145,2.0,59.501342
913,30.688383465367888,-0.7830593884631312,30.621158090854486,-0.42661292647760757,2.0,59.501342
914,30.72199615262459,-1.0544911232374996,30.65477077811119,-0.542873430324434,2.0,59.501342
915,30.75560883988129,-1.2587107367340602,30.688383465367888,-0.7993236260355123,2.0,59.501342
916,30.789221527137993,-1.3393854044227003,30.72199615262459,-1.0851438237890294,2.0,59.501342
917,30.822834214394693,-1.2363511977907196,30.75560883988129,-1.210756445276372,2.0,59.501342
918,30.856446901651395,-0.9066137199319672,30.789221527137993,-1.0108166227676234,2.0,59.501342
919,30.890059588908095,-0.3585695409908969,30.822834214394693,-0.4461564775044872,2.0,59.501342
920,30.923672276164798,0.32336916082104566,30.856446901651395,0.3526291808659451,2.0,59.501342
921,30.957284963421497,0.9909770987292619,30.890059588908095,1.1302278482237473,2.0,59.501342
922,30.990897650678196,1.484104372191573,30.923672276164794,1.6220069862326518,2.0,59.501342
923,31.0245103379349,1.6928297169426796,30.957284963421497,1.6789708385843294,2.0,59.501342
924,31.0581230251916,1.5938385372537662,30.990897650678196,1.3335537419572283,2.0,59.501342
925,31.0917357124483,1.2463529500370878,31.0245103379349,0.7714081684880487,2.0,59.501342
926,31.125348399705,0.757321596541507,31.0581230251916,0.22831588792941043,2.0,59.501342
927,31.158961086961703,0.23671422630401387,31.0917357124483,-0.12875309793595724,2.0,59.501342
928,31.192573774218403,-0.23753014999419103,31.125348399705,-0.27334639852135434,2.0,59.501342
929,31.226186461475102,-0.6340133387989577,31.1589610869617,-0.31047945293857154,2.0,59.501342
930,31.259799148731805,-0.9610493252103313,31.79760214483902,-0.47349098680117957,-16.0,-476.010736
931,31.293411835988504,-1.2431134349055106,31.831214832095718,-0.8126256810815345,-16.0,-476.010736
932,31.327024523245207,-1.487287280619778,31.86482751935242,-1.2408803743678913,-16.0,-476.010736
933,31.360637210501906,-1.6528901624372911,31.89844020660912,-1.5862883806914618,-16.0,-476.010736
934,31.39424989775861,-1.646171608118162,31.932052893865823,-1.6545191295456991,-16.0,-476.010736
935,31.42786258501531,-1.357740160798292,31.39424989775861,-0.5593083983259043,1.0,29.750671
936,31.46147527227201,-0.7359477564911618,31.427862585015312,0.3169424873172052,1.0,29.750671
937,31.49508795952871,0.14312124896294348,31.46147527227201,1.1399169086591043,1.0,29.750671
938,31.52870064678541,1.06446077126055,31.49508795952871,1.6503195386647895,1.0,29.750671
939,31.562313334042113,1.7523012994590759,31.528700646785413,1.7182012465995984,1.0,29.750671
940,31.595926021298812,2.0050339907635295,32.133729017406026,1.8311244727627383,-16.0,-476.010736
941,31.629538708555515,1.8008421833838861,32.16734170466273,1.546463489230683,-16.0,-476.010736
942,31.663151395812214,1.2985209094651489,31.0245103379349,0.7714081684880487,19.0,565.262749
943,31.696764083068917,0.7318248785081116,31.058123025191602,0.22831588792937269,19.0,565.262749
944,31.730376770325616,0.2728945456691971,31.0917357124483,-0.12875309793595724,19.0,565.262749
945,31.76398945758232,-0.0425626847417308,31.125348399705004,-0.2733463985213583,19.0,565.262749
946,31.79760214483902,-0.28941814042013586,31.76398945758232,-0.30220386786178083,1.0,29.750671
947,31.831214832095718,-0.5634319845436987,31.79760214483902,-0.47349098680117957,1.0,29.750671
948,31.86482751935242,-0.8999518304441585,31.83121483209572,-0.8126256810815798,1.0,29.750671
949,31.89844020660912,-1.2487335160317203,31.86482751935242,-1.2408803743678913,1.0,29.750671
950,31.932052893865823,-1.5034639496478193,31.898440206609123,-1.586288380691469,1.0,29.750671
951,31.965665581122522,-1.5562997821806384,31.932052893865823,-1.6545191295456991,1.0,29.750671
952,31.999278268379225,-1.348220469136459,31.965665581122526,-1.3217510566006085,1.0,29.750671
953,32.03289095563593,-0.8947374379322784,31.99927826837923,-0.6075646088210597,1.0,29.750671
954,32.06650364289263,-0.27665353192975073,32.03289095563593,0.3127478469614202,1.0,29.750671
955,32.100116330149326,0.39542138848806435,32.06650364289263,1.1712269886804507,1.0,29.750671
956,32.133729017406026,1.016230228161145,32.100116330149326,1.7192105376534135,1.0,29.750671
957,32.167341704662725,1.4996666751537189,32.133729017406026,1.8311244727627383,1.0,29.750671
958,32.20095439191943,1.776566478434052,32.73875738802665,1.0268374094837887,-16.0,-476.010736
959,32.23456707917613,1.7991487294621025,32.77237007528335,0.8259411667307432,-16.0,-476.010736
960,32.26817976643283,1.5631746181624389,32.80598276254005,0.5197737615937797,-16.0,-476.010736
961,32.30179245368953,1.131360358801524,32.873208137053446,0.005417333101228468,-17.0,-505.761407
962,32.335405140946236,0.6272844048739104,32.90682082431015,-0.09485791271771114,-17.0,-505.761407
963,32.369017828202935,0.18525635352571568,32.94043351156685,-0.11303762578793501,-17.0,-505.761407
964,32.402630515459634,-0.120698243333156,32.97404619882355,-0.121755527656012,-17.0,-505.761407
965,32.436243202716334,-0.31818751561165776,33.00765888608025,-0.20325163613981265,-17.0,-505.761407
966,32.46985588997303,-0.5096094295843725,33.04127157333695,-0.41040722127841944,-17.0,-505.761407
967,32.50346857722974,-0.7857608799105101,33.074884260593656,-0.731958260709381,-17.0,-505.761407
968,32.53708126448644,-1.1358061210633519,33.108496947850355,-1.0775340366053943,-17.0,-505.761407
969,32.57069395174314,-1.4221982484708866,32.873208137053446,0.005417333101228468,-9.0,-267.756039
970,32.60430663899984,-1.4527993625788929,32.906820824310145,-0.0948579127177073,-9.0,-267.756039
971,32.63791932625654,-1.1127562536022222,32.940433511566845,-0.11303762578793317,-9.0,-267.756039
972,32.67153201351324,-0.46533446012025376,33.24294769687716,-0.12118649804897948,-17.0,-505.761407
973,32.70514470076994,0.25635837074151696,33.27656038413386,0.6918858589988264,-17.0,-505.761407
974,32.73875738802664,0.7690072706798036,33.04127157333695,-0.41040722127841944,-9.0,-267.756039
975,32.77237007528334,0.8926012499872724,33.07488426059365,-0.7319582607093079,-9.0,-267.756039
976,32.80598276254005,0.6384540869530082,33.108496947850355,-1.0775340366053943,-9.0,-267.756039
977,32.83959544979675,0.18044175069642182,33.142109635107055,-1.2973546871382002,-9.0,-267.756039
978,32.873208137053446,-0.2638448897778751,33.175722322363754,-1.239843411360716,-9.0,-267.756039
979,32.906820824310145,-0.5601801600441458,33.20933500962045,-0.8287225365799883,-9.0,-267.756039
980,32.940433511566845,-0.7101989852181392,33.24294769687715,-0.12118649804915135,-9.0,-267.756039
981,32.97404619882355,-0.8002302358165373,33.27656038413386,0.6918858589988264,-9.0,-267.756039
982,33.00765888608025,-0.8930789828768985,33.31017307139056,1.3557089505565825,-9.0,-267.756039
983,33.04127157333695,-0.9516708570445136,33.34378575864726,1.6617321473857611,-9.0,-267.756039
984,33.07488426059365,-0.8561250043596312,33.37739844590396,1.5405347397956712,-9.0,-267.756039
985,33.108496947850355,-0.5003294231417084,33.44462382041736,0.5066233007272261,-10.0,-297.50671
986,33.142109635107055,0.1075823013679013,33.47823650767406,0.013198598458923403,-10.0,-297.50671
987,33.175722322363754,0.8188374110918395,33.51184919493076,-0.2653735506303435,-10.0,-297.50671
988,33.20933500962045,1.4157992161411894,33.54546188218746,-0.33191736306484076,-10.0,-297.50671
989,33.24294769687715,1.7348995823904447,33.57907456944416,-0.29874788150842935,-10.0,-297.50671
990,33.27656038413386,1.7539019493691925,33.612687256700866,-0.31686034471364927,-10.0,-297.50671
991,33.31017307139056,1.5808756237828738,33.646299943957565,-0.4903486539168291,-10.0,-297.50671
992,33.34378575864726,1.3585556316364635,33.679912631214265,-0.8143297119507449,-10.0,-297.50671
993,33.37739844590396,1.1626546960704054,33.713525318470964,-1.1645631321183183,-10.0,-297.50671
994,33.41101113316066,0.9668739320506463,33.74713800572767,-1.3471297135682245,-10.0,-297.50671
995,33.44462382041736,0.6842900584886106,33.78075069298437,-1.191173658895282,-10.0,-297.50671
996,33.47823650767406,0.24052230471659852,33.81436338024107,-0.6442068202679518,-10.0,-297.50671
997,33.51184919493076,-0.37222265140489275,33.84797606749777,0.17972554193893608,-10.0,-297.50671
998,33.54546188218746,-1.0822546099566266,33.88158875475447,1.0319911437023088,-10.0,-297.50671
999,33.57907456944417,-1.7571099447041434,32.50346857722974,-1.0513684668182408,32.0,952.021472
1000,33.612687256700866,-2.2350956910492688,32.53708126448644,-0.990071213301139,32.0,952.021472
1001,33.646299943957565,-2.364465711343764,32.57069395174314,-0.6948950880004794,32.0,952.021472
1002,33.679912631214265,-2.0546476760232872,32.60430663899984,-0.21576784781369604,32.0,952.021472
1003,33.71352531847097,-1.3289731100928845,32.637919326256544,0.32415631157352487,32.0,952.021472
1004,33.74713800572767,-0.34571057152173007,32.67153201351324,0.7761252339348955,32.0,952.021472
1005,33.78075069298437,0.6420373480859113,33.881588754754475,1.031991143702489,-3.0,-89.252013
1006,33.81436338024107,1.3798169605362562,33.915201442011174,1.6335507359501997,-3.0,-89.252013
1007,33.84797606749777,1.710590720619807,32.77237007528334,0.825941166730808,32.0,952.021472
1008,33.881588754754475,1.6235407331088751,32.80598276254005,0.5197737615937797,32.0,952.021472
1009,33.915201442011174,1.2305092526803971,32.83959544979675,0.21916574547046844,32.0,952.021472
1010,33.94881412926787,0.693455682671148,34.04965219103798,0.3507536707782928,-3.0,-89.252013
1011,33.98242681652457,0.15061966837350002,34.08326487829468,-0.10368940160462838,-3.0,-89.252013
1012,34.01603950378127,-0.3210664135936273,34.11687756555138,-0.32294626950724403,-3.0,-89.252013
1013,34.04965219103798,-0.7007092925846523,34.15049025280808,-0.36725043712227884,-3.0,-89.252013
1014,34.08326487829468,-0.9953155837639925,34.18410294006478,-0.3843963203322228,-3.0,-89.252013
1015,34.11687756555138,-1.2125678453148816,34.21771562732148,-0.5179189429613499,-3.0,-89.252013
1016,34.150490252808076,-1.3427711719523248,34.25132831457818,-0.8213565834204717,-3.0,-89.252013
1017,34.18410294006478,-1.3478297800363024,33.71352531847097,-1.1645631321183925,14.0,416.509394
1018,34.21771562732148,-1.1638486338326806,33.74713800572767,-1.3471297135682245,14.0,416.509394
1019,34.25132831457818,-0.7320607771253687,33.78075069298437,-1.191173658895282,14.0,416.509394
1020,34.28494100183488,-0.055577660671082385,34.385779063604986,-1.1540745260151333,-3.0,-89.252013
1021,34.31855368909158,0.7531663802497418,34.419391750861685,-0.38666802728883426,-3.0,-89.252013
1022,34.352166376348286,1.4818968998308761,34.45300443811839,0.5515398607023462,-3.0,-89.252013
1023,34.385779063604986,1.9025973086376708,34.48661712537509,1.3687209179752269,-3.0,-89.252013
1024,34.419391750861685,1.8903555998774852,34.52022981263179,1.8115519798135875,-3.0,-89.252013
1025,34.453004438118384,1.4977923498972867,34.55384249988849,1.7764492380059098,-3.0,-89.252013
1026,34.48661712537509,0.9258683303775109,34.587455187145196,1.3465615652667815,-3.0,-89.252013
1027,34.52022981263179,0.4043938171737237,34.621067874401895,0.738385635698517,-3.0,-89.252013
1028,34.55384249988849,0.06300110826958503,34.654680561658594,0.19124940661745857,-3.0,-89.252013
1029,34.58745518714519,-0.1215351679799611,34.68829324891529,-0.14135188265193097,-3.0,-89.252013
1030,34.62106787440189,-0.2740903693353012,34.72190593617199,-0.24762401445155793,-3.0,-89.252013
1031,34.654680561658594,-0.50936184988406,34.7555186234287,-0.24030727258598,-3.0,-89.252013
1032,34.68829324891529,-0.8369741334189246,34.7891313106854,-0.28089688150052167,-3.0,-89.252013
1033,34.72190593617199,-1.1449096858524541,34.8227439979421,-0.48375674678700137,-3.0,-89.252013
1034,34.75551862342869,-1.2697695013530887,34.8563566851988,-0.8453305211306447,-3.0,-89.252013
1035,34.7891313106854,-1.10392776762275,34.889969372455504,-1.2324675658121065,-3.0,-89.252013
1036,34.8227439979421,-0.6651387780295924,34.9235820597122,-1.4388023500141858,-3.0,-89.252013
1037,34.8563566851988,-0.08455583940657692,34.9908074342256,-0.7290875294862078,-4.0,-119.002684
1038,34.8899693724555,0.46860090420417677,35.0244201214823,0.10805471476251928,-4.0,-119.002684
1039,34.923582059712196,0.8667184041094923,35.058032808739,0.9631654478502585,-4.0,-119.002684
1040,34.9571947469689,1.0610559692597235,35.05803280873901,0.9631654478503829,-3.0,-89.252013
1041,34.9908074342256,1.072060612824689,35.09164549599571,1.5520345084857905,-3.0,-89.252013
1042,35.0244201214823,0.9555231593457575,35.125258183252406,1.6944973443766966,-3.0,-89.252013
1043,35.058032808739,0.7668514633123696,35.158870870509105,1.390467998682238,-3.0,-89.252013
1044,35.09164549599571,0.5369691283872527,35.19248355776581,0.8073804379325912,-3.0,-89.252013
1045,35.125258183252406,0.26907278348929664,35.22609624502251,0.19047347234447898,-3.0,-89.252013
1046,35.158870870509105,-0.043023486702545084,35.25970893227921,-0.2540852484681313,-3.0,-89.252013
1047,35.192483557765804,-0.3915454027433895,35.29332161953591,-0.44510233649725744,-3.0,-89.252013
1048,35.226096245022504,-0.7499423909310804,35.32693430679261,-0.44421095202750815,-3.0,-89.252013
1049,35.25970893227921,-1.0896120032331964,35.360546994049315,-0.40339625783988575,-3.0,-89.252013
1050,35.29332161953591,-1.3932268184203143,35.394159681306014,-0.4712585486190116,-3.0,-89.252013
1051,35.32693430679261,-1.6409575664721108,35.46138505581941,-1.0223262838468792,-4.0,-119.002684
1052,35.36054699404931,-1.7792158953698565,35.49499774307611,-1.2441770798880607,-4.0,-119.002684
1053,35.394159681306014,-1.711043191169773,35.52861043033282,-1.1734435565822194,-4.0,-119.002684
1054,35.427772368562714,-1.3381192173637058,35.56222311758952,-0.7135611573747749,-4.0,-119.002684
1055,35.46138505581941,-0.6387238441227261,35.59583580484622,0.0601207964672174,-4.0,-119.002684
1056,35.49499774307611,0.27536597877857955,35.62944849210292,0.9131820128436987,-4.0,-119.002684
1057,35.52861043033281,1.175686203810791,35.663061179359616,1.55250974420714,-4.0,-119.002684
1058,35.56222311758952,1.8104115225604673,35.69667386661632,1.7641715799591882,-4.0,-119.002684
1059,35.59583580484622,2.0213532867509003,35.69667386661632,1.7641715799591882,-3.0,-89.252013
1060,35.62944849210292,1.8126340821517943,35.73028655387302,1.513322782495476,-3.0,-89.252013
1061,35.663061179359616,1.3309538063478683,35.76389924112972,0.9514111506612786,-3.0,-89.252013
1062,35.696673866616315,0.7769829772628405,35.79751192838642,0.32974771717090534,-3.0,-89.252013
1063,35.73028655387302,0.30884818377998424,35.864737302899826,-0.33727957270050135,-4.0,-119.002684
1064,35.76389924112972,-0.008081113123577463,35.898349990156525,-0.3587755003522422,-4.0,-119.002684
1065,35.79751192838642,-0.19251331859370607,35.931962677413225,-0.3567706205404447,-4.0,-119.002684
1066,35.83112461564312,-0.3025745563955064,35.965575364669924,-0.4809134869958948,-4.0,-119.002684
1067,35.864737302899826,-0.3853649450306617,35.99918805192663,-0.7691307844224464,-4.0,-119.002684
1068,35.898349990156525,-0.4441662860979567,36.03280073918333,-1.112001727134796,-4.0,-119.002684
1069,35.931962677413225,-0.44004387576116655,36.06641342644003,-1.3026643601666905,-4.0,-119.002684
1070,35.965575364669924,-0.3284324907994552,36.10002611369673,-1.150647214222177,-4.0,-119.002684
1071,35.99918805192662,-0.10379752977410775,36.13363880095343,-0.6007942042238378,-4.0,-119.002684
1072,36.03280073918333,0.18576311342779925,36.167251488210134,0.21118828558722505,-4.0,-119.002684
1073,36.06641342644003,0.4653276768890787,36.20086417546683,1.0056126201870346,-4.0,-119.002684
1074,36.10002611369673,0.6718017349091411,36.23447686272353,1.4895870642101818,-4.0,-119.002684
1075,36.13363880095343,0.7673650431689969,36.26808954998023,1.501119718410133,-4.0,-119.002684
1076,36.167251488210134,0.7253846046492984,36.30170223723694,1.0852220228048053,-4.0,-119.002684
1077,36.20086417546683,0.5196921002624637,36.33531492449364,0.4603394521565083,-4.0,-119.002684
1078,36.23447686272353,0.14202323628142433,36.36892761175034,-0.10259203988033562,-4.0,-119.002684
1079,36.26808954998023,-0.36269881514045926,36.402540299007036,-0.41867130979486633,-4.0,-119.002684
1080,36.30170223723693,-0.8811160370175432,36.436152986263735,-0.4703538294760683,-4.0,-119.002684
1081,36.33531492449364,-1.2662486504794497,36.46976567352044,-0.3922438256372336,-4.0,-119.002684
1082,36.36892761175034,-1.4093583134729217,36.50337836077714,-0.373077288265244,-4.0,-119.002684
1083,36.402540299007036,-1.2955235794717692,36.50337836077714,-0.373077288265244,-3.0,-89.252013
1084,36.436152986263735,-0.9982135600753926,35.99918805192662,-0.7691307844223739,13.0,386.75872300000003
1085,36.46976567352044,-0.6218544782325527,36.03280073918333,-1.112001727134796,13.0,386.75872300000003
1086,36.50337836077714,-0.2440250931349244,36.604216422547246,-1.1024787652602785,-3.0,-89.252013
1087,36.53699104803384,0.09967460793282891,36.637829109803945,-1.1126286907165484,-3.0,-89.252013
1088,36.57060373529054,0.3884012211310168,36.705054484317344,0.008339743493631402,-4.0,-119.002684
1089,36.60421642254724,0.5834453423436103,36.705054484317344,0.008339743493631402,-3.0,-89.252013
1090,36.637829109803945,0.6305328522898629,36.73866717157405,0.8608785452229263,-3.0,-89.252013
1091,36.671441797060645,0.5053416440141065,36.77227985883075,1.52076025495483,-3.0,-89.252013
1092,36.705054484317344,0.26535353991869304,36.80589254608745,1.750728758889427,-3.0,-89.252013
1093,36.73866717157404,0.051541621980612955,36.83950523334415,1.500042651122675,-3.0,-89.252013
1094,36.77227985883075,0.015139453989594966,36.873117920600855,0.9175956894100687,-3.0,-89.252013
1095,36.80589254608745,0.20995390884711,36.906730607857554,0.2627884745229256,-3.0,-89.252013
1096,36.83950523334415,0.5325313335287712,36.94034329511425,-0.23117935458235273,-3.0,-89.252013
1097,36.87311792060085,0.7663271820479699,36.97395598237095,-0.46592842240757715,-3.0,-89.252013
1098,36.90673060785755,0.7098425203305262,37.00756866962765,-0.504105925964293,-3.0,-89.252013
1099,36.94034329511425,0.306772505396159,37.04118135688436,-0.5060352426280146,-3.0,-89.252013
1100,36.97395598237095,-0.3063252024577705,37.07479404414106,-0.6164850038844822,-3.0,-89.252013
1101,37.00756866962765,-0.8674082353925128,37.10840673139776,-0.8654273775444913,-3.0,-89.252013
1102,37.04118135688435,-1.1324140379488123,37.142019418654456,-1.1381964393656214,-3.0,-89.252013
1103,37.07479404414105,-1.0072973886616357,37.175632105911156,-1.233882845863238,-3.0,-89.252013
1104,37.10840673139776,-0.5882298217047325,37.20924479316786,-0.9829714188816331,-3.0,-89.252013
1105,37.142019418654456,-0.08986137479971693,37.24285748042456,-0.35976263379116635,-3.0,-89.252013
1106,37.175632105911156,0.28654443250339257,37.27647016768126,0.47698419896409044,-3.0,-89.252013
1107,37.209244793167855,0.45903257376685275,37.31008285493796,1.2446327938623625,-3.0,-89.252013
1108,37.24285748042456,0.4837521678481066,37.343695542194666,1.6696397756909518,-3.0,-89.252013
1109,37.27647016768126,0.4888783176040914,37.377308229451366,1.6198263828327042,-3.0,-89.252013
1110,37.31008285493796,0.5784960289652448,37.410920916708065,1.1621449733676388,-3.0,-89.252013
1111,37.34369554219466,0.7660990315429166,37.444533603964764,0.5162526057849619,-3.0,-89.252013
1112,37.37730822945136,0.9648264545077956,37.478146291221464,-0.06556310202326919,-3.0,-89.252013
1113,37.410920916708065,1.0301908286156884,37.51175897847817,-0.4228148171932307,-3.0,-89.252013
1114,37.444533603964764,0.8361490433589751,37.54537166573487,-0.5495059096178144,-3.0,-89.252013
1115,37.478146291221464,0.3526133671242477,37.57898435299157,-0.5673822588728772,-3.0,-89.252013
1116,37.51175897847816,-0.3177588672146684,37.61259704024827,-0.6311038161330659,-3.0,-89.252013
1117,37.54537166573487,-0.9702892013738482,37.646209727504974,-0.820805015885706,-3.0,-89.252013
1118,37.57898435299157,-1.3839670306210237,37.679822414761674,-1.0819195733352724,-3.0,-89.252013
1119,37.61259704024827,-1.4198502543458318,37.71343510201837,-1.2466056614210443,-3.0,-89.252013
1120,37.64620972750497,-1.085875106725591,37.74704778927507,-1.1278637052317277,-3.0,-89.252013
1121,37.67982241476167,-0.5348008943468776,37.78066047653177,-0.6365979020103893,-3.0,-89.252013
1122,37.71343510201837,0.008965953288375055,37.81427316378848,0.1450375452300249,-3.0,-89.252013
1123,37.74704778927507,0.3578536798492163,37.84788585104518,0.9807038517034726,-3.0,-89.252013
1124,37.78066047653177,0.44577054717707076,37.57898435299157,-0.5673822588728772,6.0,178.504026
1125,37.81427316378847,0.3439269818053622,37.61259704024827,-0.6311038161330659,6.0,178.504026
1126,37.84788585104518,0.20297470507555265,37.646209727504974,-0.820805015885706,6.0,178.504026
1127,37.88149853830188,0.15660540651590668,37.98233660007198,0.8902693680706061,-3.0,-89.252013
1128,37.915111225558576,0.24106480907497166,38.01594928732868,0.26032687379928016,-3.0,-89.252013
1129,37.948723912815275,0.37403212513551476,38.04956197458538,-0.20605121568564463,-3.0,-89.252013
1130,37.982336600071974,0.40235278679047365,38.08317466184208,-0.4256687714590525,-3.0,-89.252013
1131,38.01594928732868,0.19281139390936408,38.116787349098786,-0.46417619956156286,-3.0,-89.252013
1132,38.04956197458538,-0.2797930574350343,38.150400036355485,-0.4753833406865506,-3.0,-89.252013
1133,38.08317466184208,-0.8939879008059114,38.184012723612184,-0.5964570599922021,-3.0,-89.252013
1134,38.11678734909878,-1.4194465832100165,37.915111225558576,1.7545886621856988,6.0,178.504026
1135,38.150400036355485,-1.6191065198308825,37.94872391281528,1.4709034157929064,6.0,178.504026
1136,38.184012723612184,-1.363113934112818,37.98233660007198,0.8902693680706061,6.0,178.504026
1137,38.217625410868884,-0.6909257936779335,38.01594928732868,0.26032687379928016,6.0,178.504026
1138,38.25123809812558,0.2106712978919307,38.04956197458538,-0.20605121568564463,6.0,178.504026
1139,38.28485078538228,1.0928796753475196,38.08317466184208,-0.4256687714590525,6.0,178.504026
1140,38.31846347263899,1.7397696000915446,38.116787349098786,-0.46417619956156286,6.0,178.504026
1141,38.35207615989569,2.0280304389022534,38.11678734909878,-0.4641761995615605,7.0,208.254697
1142,38.38568884715239,1.9402350369384407,38.15040003635548,-0.4753833406865482,7.0,208.254697
1143,38.41930153440909,1.5461158724412734,38.18401272361218,-0.5964570599921766,7.0,208.254697
1144,38.45291422166579,0.9705652160005326,38.217625410868884,-0.8555908670386283,7.0,208.254697
1145,38.48652690892249,0.35579319834159273,38.25123809812558,-1.142383593589,7.0,208.254697
1146,38.52013959617919,-0.18168102690248775,38.28485078538228,-1.260186842257834,7.0,208.254697
1147,38.55375228343589,-0.5866768456890782,38.31846347263898,-1.0368689648034928,7.0,208.254697
1148,38.58736497069259,-0.8694746596901085,38.35207615989568,-0.43582364311001975,7.0,208.254697
1149,38.6209776579493,-1.071282860063093,38.38568884715239,0.397218489913786,7.0,208.254697
1150,38.654590345205996,-1.2166578005625255,38.41930153440909,1.1852273929271282,7.0,208.254697
1151,38.688203032462695,-1.287876985035968,38.452914221665786,1.6474571624999839,7.0,208.254697
1152,38.721815719719395,-1.234682041327567,38.486526908922485,1.635255435224084,7.0,208.254697
1153,38.755428406976094,-1.0071371306944181,38.520139596179185,1.2002402965701007,7.0,208.254697
1154,38.7890410942328,-0.5903541388640487,38.55375228343589,0.5577518800370237,7.0,208.254697
1155,38.8226537814895,-0.0260880566144395,38.58736497069259,-0.031033600771881782,7.0,208.254697
1156,38.8562664687462,0.5840148414416722,38.62097765794929,-0.3905774927914129,7.0,208.254697
1157,38.8898791560029,1.0954959063985463,38.65459034520599,-0.5047183183241852,7.0,208.254697
1158,38.923491843259605,1.3623209482761862,38.688203032462695,-0.4968335828790028,7.0,208.254697
1159,38.957104530516304,1.2980732923843004,38.721815719719395,-0.5328548129658542,7.0,208.254697
1160,38.990717217773,0.9295767190365419,38.755428406976094,-0.704691160023724,7.0,208.254697
1161,39.0243299050297,0.4018417068528753,38.78904109423279,-0.9614694421676938,7.0,208.254697
1162,39.0579425922864,-0.08369523131634067,38.82265378148949,-1.1299788049737998,7.0,208.254697
1163,39.09155527954311,-0.36959517071823617,38.8562664687462,-1.0162388551427737,7.0,208.254697
1164,39.12516796679981,-0.4234927013193134,38.8898791560029,-0.5321508825861928,7.0,208.254697
1165,39.15878065405651,-0.34893619072970866,38.9234918432596,0.22800093564809665,7.0,208.254697
1166,39.192393341313206,-0.31433400007426815,39.259618715826605,-0.5975785093498351,-2.0,-59.501342
1167,39.22600602856991,-0.43912254595346656,39.29323140308331,-0.7425782751709599,-2.0,-59.501342
1168,39.25961871582661,-0.707738757886158,39.32684409034001,-0.9727872711063184,-2.0,-59.501342
1169,39.29323140308331,-0.9697917613453371,39.36045677759671,-1.1232076651313776,-2.0,-59.501342
1170,39.32684409034001,-1.0310238131567817,39.39406946485341,-1.0017154242407689,-2.0,-59.501342
1171,39.36045677759671,-0.7765363541269948,39.42768215211011,-0.5166783170509084,-2.0,-59.501342
1172,39.394069464853416,-0.2428755908930568,39.461294839366815,0.24440438836947204,-2.0,-59.501342
1173,39.427682152110116,0.40588148828702797,39.494907526623514,1.0370427456873603,-2.0,-59.501342
1174,39.461294839366815,0.9704360096591471,39.52852021388021,1.5749740231264258,-2.0,-59.501342
1175,39.494907526623514,1.3062589044493027,39.56213290113691,1.6732275046050284,-2.0,-59.501342
1176,39.52852021388022,1.3602042624486423,39.59574558839362,1.3361901973430106,-2.0,-59.501342
1177,39.56213290113692,1.1544475057569434,39.62935827565032,0.7421095854847465,-2.0,-59.501342
1178,39.59574558839362,0.7495829875421529,39.66297096290702,0.13814453850568165,-2.0,-59.501342
1179,39.62935827565032,0.21651718310796506,39.69658365016372,-0.28966526463131587,-2.0,-59.501342
1180,39.66297096290702,-0.36873837829388606,39.730196337420416,-0.4979318720147331,-2.0,-59.501342
1181,39.696583650163724,-0.9130795631380402,39.76380902467712,-0.5779280804160062,-2.0,-59.501342
1182,39.73019633742042,-1.3018392521031974,39.79742171193382,-0.6694088847213143,-2.0,-59.501342
1183,39.76380902467712,-1.4249096518779236,40.06632320998743,1.5802703280616022,-9.0,-267.756039
1184,39.79742171193382,-1.2284759265511223,40.09993589724413,1.620546388344809,-9.0,-267.756039
1185,39.83103439919053,-0.7588484182586754,40.133548584500836,1.241433408062346,-9.0,-267.756039
1186,39.86464708644723,-0.16186706340393767,40.167161271757536,0.6339808260294336,-9.0,-267.756039
1187,39.89825977370393,0.37461065902866325,40.200773959014235,0.04366097634455951,-9.0,-267.756039
1188,39.931872460960626,0.7109927462331653,40.234386646270934,-0.35730701528922537,-9.0,-267.756039
1189,39.965485148217326,0.8262523463643012,40.267999333527634,-0.543889037802359,-9.0,-267.756039
1190,39.99909783547403,0.818350760187558,40.33522470804104,-0.7286627583175472,-10.0,-297.50671
1191,40.03271052273073,0.8277619465918936,40.36883739529774,-0.9343159702762983,-10.0,-297.50671
1192,40.06632320998743,0.9327258275647693,40.36883739529774,-0.9343159702762983,-9.0,-267.756039
1193,40.09993589724413,1.086953463785848,40.40245008255444,-1.1700411094431356,-9.0,-267.756039
1194,40.133548584500836,1.1402998938157511,40.73857695512145,0.11319213155206412,-18.0,-535.512078
1195,40.167161271757536,0.9270582041187829,40.77218964237815,-0.2322626213231378,-18.0,-535.512078
1196,40.200773959014235,0.3675979037122451,40.80580232963485,-0.36297705869628893,-18.0,-535.512078
1197,40.234386646270934,-0.47084156244965136,40.83941501689155,-0.3998752691322215,-18.0,-535.512078
1198,40.267999333527634,-1.3799458450757873,40.33522470804103,-0.7286627583175245,-2.0,-59.501342
1199,40.30161202078434,-2.0788951362739185,40.36883739529774,-0.9343159702762983,-2.0,-59.501342
1200,40.33522470804104,-2.323149330262938,40.40245008255444,-1.1700411094431356,-2.0,-59.501342
1201,40.36883739529774,-2.0135098856492233,40.43606276981114,-1.263867212059374,-2.0,-59.501342
1202,40.40245008255444,-1.2517375415398178,41.27637995122866,0.3038167240031719,-26.0,-773.5174460000001
1203,40.43606276981114,-0.30249835272335523,41.30999263848536,-0.15907737297266372,-26.0,-773.5174460000001
1204,40.469675457067844,0.5302132945738339,41.34360532574207,-0.3930931340329355,-26.0,-773.5174460000001
1205,40.50328814432454,1.0487020711508401,41.37721801299877,-0.46782455277934143,-26.0,-773.5174460000001
1206,40.53690083158124,1.2434773414222615,41.41083070025547,-0.5293854585190682,-26.0,-773.5174460000001
1207,40.57051351883794,1.2594858580019415,41.444443387512166,-0.6915253258497286,-26.0,-773.5174460000001
1208,40.60412620609465,1.2699814829660518,40.67135158060805,1.2560056993458544,-2.0,-59.501342
1209,40.63773889335135,1.345207555202215,40.704964267864746,0.6635808595395272,-2.0,-59.501342
1210,40.67135158060805,1.4047864149457088,40.738576955121445,0.11319213155213714,-2.0,-59.501342
1211,40.704964267864746,1.2809591098622146,40.772189642378144,-0.2322626213230648,-2.0,-59.501342
1212,40.738576955121445,0.8432741634570055,40.805802329634844,-0.3629770586962613,-2.0,-59.501342
1213,40.77218964237815,0.09939610818137012,40.83941501689155,-0.3998752691322215,-2.0,-59.501342
1214,40.80580232963485,-0.7890961227608149,40.87302770414825,-0.4999200417097901,-2.0,-59.501342
1215,40.83941501689155,-1.5774306767086457,40.90664039140495,-0.7448007875437062,-2.0,-59.501342
1216,40.87302770414825,-2.04557446112836,40.94025307866165,-1.075857276646706,-2.0,-59.501342
1217,40.906640391404956,-2.082591683211234,40.973865765918354,-1.31341123783497,-2.0,-59.501342
1218,40.940253078661655,-1.712889798025745,40.704964267864746,0.6635808595395272,7.0,208.254697
1219,40.973865765918354,-1.0671013288341822,40.738576955121445,0.11319213155213714,7.0,208.254697
1220,41.007478453175054,-0.32244825480137723,41.30999263848536,-0.15907737297266372,-9.0,-267.756039
1221,41.04109114043175,0.3602900044466235,41.34360532574206,-0.3930931340329197,-9.0,-267.756039
1222,41.07470382768846,0.8804432227272102,41.37721801299877,-0.46782455277934143,-9.0,-267.756039
1223,41.10831651494516,1.204785173590063,41.41083070025547,-0.5293854585190682,-9.0,-267.756039
1224,41.14192920220186,1.339460197496677,41.444443387512166,-0.6915253258497286,-9.0,-267.756039
1225,41.17554188945856,1.2941981547402226,41.478056074768865,-0.9511520145008288,-9.0,-267.756039
1226,41.209154576715264,1.0724106014887271,41.51166876202557,-1.1774264463381223,-9.0,-267.756039
1227,41.24276726397196,0.6919548540892708,41.54528144928227,-1.1831824800061586,-9.0,-267.756039
1228,41.27637995122866,0.208978304481547,41.57889413653897,-0.8404804431541937,-9.0,-267.756039
1229,41.30999263848536,-0.2829762438068654,41.61250682379567,-0.1737559071786876,-9.0,-267.756039
1230,41.34360532574206,-0.6802943397799227,41.64611951105237,0.6272851490743745,-9.0,-267.756039
1231,41.37721801299877,-0.9038615283723542,41.41083070025547,-0.5293854585190682,-1.0,-29.750671
1232,41.41083070025547,-0.9220341853828976,41.444443387512166,-0.6915253258497286,-1.0,-29.750671
1233,41.444443387512166,-0.7566315602370635,41.478056074768865,-0.9511520145008288,-1.0,-29.750671
1234,41.478056074768865,-0.47739485896350536,41.511668762025565,-1.1774264463380746,-1.0,-29.750671
1235,41.51166876202557,-0.18831347655436462,42.3519859434431,0.5280990091375518,-25.0,-743.766775
1236,41.54528144928227,-0.00048346875389743523,41.81418294733588,0.3737647715592443,-8.0,-238.005368
1237,41.57889413653897,0.010514799777694912,41.84779563459258,-0.10834018637324969,-8.0,-238.005368
1238,41.61250682379567,-0.15391142196047436,41.88140832184928,-0.38401225500804914,-8.0,-238.005368
1239,41.64611951105237,-0.403457209908225,41.91502100910598,-0.4923097532226513,-8.0,-238.005368
1240,41.679732198309075,-0.5927483157037943,41.948633696362684,-0.561894990723233,-8.0,-238.005368
1241,41.713344885565775,-0.5900689288036177,41.98224638361938,-0.709604803284423,-8.0,-238.005368
1242,41.746957572822474,-0.34859050017207116,42.01585907087608,-0.9503376970896893,-8.0,-238.005368
1243,41.78057026007917,0.057216575233050196,41.478056074768865,-0.9511520145008288,9.0,267.756039
1244,41.81418294733587,0.4554533475909786,41.511668762025565,-1.1774264463380746,9.0,267.756039
1245,41.84779563459258,0.6608736678112695,41.88140832184928,-0.38401225500804914,-1.0,-29.750671
1246,41.88140832184928,0.5840361565407602,41.91502100910598,-0.4923097532226513,-1.0,-29.750671
