frame_idx,t_rppg,rppg_n,t_gt_pair,ppg_n_pair,lag_samples,lag_frames
0,0.0,-0.005199640624612533,-0.03360738362283966,-0.008673952669230505,1.0,29.755366
1,0.03360738362283966,-0.2473184783639185,0.0,-0.008673952669230505,1.0,29.755366
2,0.06721476724567932,-0.3936029127314964,0.03360738362283966,-0.021662328736526307,1.0,29.755366
3,0.10082215086851898,-0.39630747923178045,0.06721476724567932,-0.03395667646125687,1.0,29.755366
4,0.13442953449135864,-0.2798342828593105,0.10082215086851898,-0.04848379061874521,1.0,29.755366
5,0.1680369181141983,-0.1280534797204776,0.13442953449135864,-0.07266604152553219,1.0,29.755366
6,0.20164430173703796,-0.038257626046558066,0.1680369181141983,-0.11789650589294655,1.0,29.755366
7,0.23525168535987762,-0.06719544662509855,0.20164430173703796,-0.19793362135838052,1.0,29.755366
8,0.2688590689827173,-0.2012968669792646,0.23525168535987762,-0.3255034639092588,1.0,29.755366
9,0.30246645260555693,-0.36716323774269555,0.2688590689827173,-0.5048933377861814,1.0,29.755366
10,0.3360738362283966,-0.47266208048674646,0.30246645260555693,-0.7202598756484009,1.0,29.755366
11,0.36968121985123625,-0.4531324621343068,0.3360738362283966,-0.9250834684544952,1.0,29.755366
12,0.4032886034740759,-0.2988306740271134,0.36968121985123625,-1.0432991328146948,1.0,29.755366
13,0.4368959870969156,-0.05324453824384287,0.4032886034740759,-0.990833352399177,1.0,29.755366
14,0.47050337071975523,0.2121981334062043,0.4368959870969156,-0.7149502368409395,1.0,29.755366
15,0.5041107543425949,0.4309834088362813,0.47050337071975523,-0.23338313315344814,1.0,29.755366
16,0.5377181379654346,0.5647874371789007,0.5041107543425949,0.3523802174233038,1.0,29.755366
17,0.5713255215882742,0.6076057042259305,0.5377181379654346,0.8855864452599743,1.0,29.755366
18,0.6049329052111139,0.5730857252286264,0.5713255215882742,1.2162089257534618,1.0,29.755366
19,0.6385402888339535,0.47747358754976876,0.6049329052111139,1.2654064613380176,1.0,29.755366
20,0.6721476724567932,0.33218150983912803,0.6385402888339535,1.0573262760191218,1.0,29.755366
21,0.7057550560796328,0.150639995195189,0.6721476724567932,0.7016716536630124,1.0,29.755366
22,0.7393624397024725,-0.03977201267931055,0.7057550560796328,0.3387513501076608,1.0,29.755366
23,0.7729698233253122,-0.19618563535346809,0.7393624397024725,0.07797904467620907,1.0,29.755366
24,0.8065772069481518,-0.2764817126610643,0.7729698233253122,-0.03965480610719263,1.0,29.755366
25,0.8401845905709915,-0.2646151185957584,0.8065772069481518,-0.041684856354465644,1.0,29.755366
26,0.8737919741938311,-0.18609003281860292,0.8401845905709915,0.005153837245264487,1.0,29.755366
27,0.9073993578166708,-0.09903513876916811,0.8737919741938311,0.03249064521939977,1.0,29.755366
28,0.9410067414395105,-0.06293652604316306,0.9073993578166708,-0.003978089023126212,1.0,29.755366
29,0.9746141250623501,-0.10458763117114835,0.9410067414395105,-0.11843103130144683,1.0,29.755366
30,1.0082215086851898,-0.20506828597180254,0.9746141250623501,-0.3020965571008091,1.0,29.755366
31,1.0418288923080294,-0.31665337522994447,1.0082215086851898,-0.5307883107672845,1.0,29.755366
32,1.075436275930869,-0.3953893139631753,1.0418288923080294,-0.7649087280504543,1.0,29.755366
33,1.1090436595537088,-0.4234307547967835,1.075436275930869,-0.9457454643484644,1.0,29.755366
34,1.1426510431765484,-0.40521222567552245,1.1090436595537088,-1.0003261734262743,1.0,29.755366
35,1.176258426799388,-0.3449673663720776,1.1426510431765484,-0.8640915485930635,1.0,29.755366
36,1.2098658104222277,-0.23036560561608238,1.176258426799388,-0.516522417142712,1.0,29.755366
37,1.2434731940450674,-0.04189737464548091,1.2098658104222277,-0.009596382082915113,1.0,29.755366
38,1.277080577667907,0.21747951576808844,1.2434731940450674,0.5342226738599504,1.0,29.755366
39,1.3106879612907467,0.500274277984484,1.277080577667907,0.9628903597323561,1.0,29.755366
40,1.3442953449135864,0.7248905796792703,1.3106879612907467,1.1581479918193962,1.0,29.755366
41,1.377902728536426,0.8167998926131987,1.3442953449135864,1.087730136553755,1.0,29.755366
42,1.4115101121592657,0.7525201271612428,1.377902728536426,0.8168589661152841,1.0,29.755366
43,1.4451174957821054,0.5748811193558607,1.4115101121592657,0.47286498970642826,1.0,29.755366
44,1.478724879404945,0.3682146371896207,1.4451174957821054,0.18359977923155796,1.0,29.755366
45,1.5123322630277847,0.20956375364545018,1.478724879404945,0.02328909100112495,1.0,29.755366
46,1.5459396466506243,0.1277385093894572,1.5123322630277847,-0.008065539240607579,1.0,29.755366
47,1.579547030273464,0.09535286768962982,1.5459396466506243,0.03301907702507669,1.0,29.755366
48,1.6131544138963037,0.05430607226251696,1.579547030273464,0.07313100554028565,1.0,29.755366
49,1.6467617975191433,-0.04730091928745025,1.6131544138963037,0.05842169841870549,1.0,29.755366
50,1.680369181141983,-0.23011682559138225,1.6467617975191433,-0.02994302477310718,1.0,29.755366
51,1.7139765647648226,-0.477414216893797,1.680369181141983,-0.18259951627870885,1.0,29.755366
52,1.7475839483876623,-0.7416057695139505,1.7139765647648226,-0.3781381700219515,1.0,29.755366
53,1.781191332010502,-0.9572623369557133,1.7475839483876623,-0.5928010263654248,1.0,29.755366
54,1.8147987156333416,-1.0595972729561902,1.781191332010502,-0.7970866375669542,1.0,29.755366
55,1.8484060992561813,-1.0064574100354686,1.8147987156333416,-0.9463954925378273,1.0,29.755366
56,1.882013482879021,-0.7961563929249229,1.8484060992561813,-0.9807991923199094,1.0,29.755366
57,1.9156208665018606,-0.47176171365726133,1.882013482879021,-0.8443402109878786,1.0,29.755366
58,1.9492282501247002,-0.10824549143830074,1.9156208665018606,-0.5188268440978014,1.0,29.755366
59,1.98283563374754,0.21238752284984075,1.9492282501247002,-0.051612347525430986,1.0,29.755366
60,2.0164430173703796,0.4277703690331366,1.98283563374754,0.4456230877447333,1.0,29.755366
61,2.0500504009932192,0.5145829584110512,2.0164430173703796,0.834703141815887,1.0,29.755366
62,2.083657784616059,0.4960316453162432,2.0500504009932192,1.0090168840747011,1.0,29.755366
63,2.1172651682388985,0.4347961155237779,2.083657784616059,0.9402625453491663,1.0,29.755366
64,2.150872551861738,0.40906200813209326,1.377902728536426,0.8168589661152841,23.0,684.373418
65,2.184479935484578,0.47493061214149557,1.4115101121592657,0.47286498970642826,23.0,684.373418
66,2.2180873191074175,0.6310047500810625,1.4451174957821054,0.18359977923155796,23.0,684.373418
67,2.251694702730257,0.8089178070108956,1.4451174957821054,0.18359977923155796,24.0,714.128784
68,2.285302086353097,0.904300016959121,2.251694702730257,-0.09980041464442783,1.0,29.755366
69,2.3189094699759365,0.8368222935392748,2.285302086353097,-0.056328327055534894,1.0,29.755366
70,2.352516853598776,0.6025838746282138,2.3189094699759365,-0.0004521316886104131,1.0,29.755366
71,2.386124237221616,0.28057709015849275,2.352516853598776,0.014029365711468138,1.0,29.755366
72,2.4197316208444555,-0.014515705556753038,2.386124237221616,-0.039282322805372,1.0,29.755366
73,2.453339004467295,-0.20047371258896202,1.98283563374754,0.4456230877447333,14.0,416.57512399999996
74,2.486946388090135,-0.26909425973330603,2.0164430173703796,0.834703141815887,14.0,416.57512399999996
75,2.5205537717129745,-0.2767500943877953,1.3442953449135864,1.087730136553755,35.0,1041.43781
76,2.554161155335814,-0.2977784818281346,1.377902728536426,0.8168589661152841,35.0,1041.43781
77,2.5877685389586538,-0.3761221757497583,1.4115101121592657,0.47286498970642826,35.0,1041.43781
78,2.6213759225814934,-0.50431763489767,1.680369181141983,-0.18259951627870885,28.0,833.1502479999999
79,2.654983306204333,-0.6361888464278493,1.7139765647648226,-0.3781381700219515,28.0,833.1502479999999
80,2.6885906898271728,-0.7186071885390192,1.7475839483876623,-0.5928010263654248,28.0,833.1502479999999
81,2.7221980734500124,-0.7200606184451603,1.781191332010502,-0.7970866375669542,28.0,833.1502479999999
82,2.755805457072852,-0.6407194859438509,1.8147987156333416,-0.9463954925378273,28.0,833.1502479999999
83,2.7894128406956917,-0.5031573640190347,1.8484060992561813,-0.9807991923199094,28.0,833.1502479999999
84,2.8230202243185314,-0.3353256942917697,1.882013482879021,-0.8443402109878786,28.0,833.1502479999999
85,2.856627607941371,-0.16039446138951302,1.9156208665018606,-0.5188268440978014,28.0,833.1502479999999
86,2.8902349915642107,0.0007090783974567362,1.9492282501247002,-0.051612347525430986,28.0,833.1502479999999
87,2.9238423751870504,0.1222017662641983,1.98283563374754,0.4456230877447333,28.0,833.1502479999999
88,2.95744975880989,0.17561366427547037,2.0164430173703796,0.834703141815887,28.0,833.1502479999999
89,2.9910571424327297,0.14566448837718213,2.083657784616059,0.9402625453491663,27.0,803.3948819999999
90,3.0246645260555693,0.048665313653900685,2.1172651682388985,0.6877245529802051,27.0,803.3948819999999
91,3.058271909678409,-0.06456279401550905,2.150872551861738,0.36614209891320315,27.0,803.3948819999999
92,3.0918792933012487,-0.13045688960515106,2.184479935484578,0.0915708484035787,27.0,803.3948819999999
93,3.1254866769240883,-0.10965300839721195,2.2180873191074175,-0.06568890743797111,27.0,803.3948819999999
94,3.159094060546928,-0.014992314384314108,2.251694702730257,-0.09980041464442783,27.0,803.3948819999999
95,3.1927014441697676,0.09119109496964126,2.285302086353097,-0.056328327055534894,27.0,803.3948819999999
96,3.2263088277926073,0.13242713347164778,2.3189094699759365,-0.0004521316886104131,27.0,803.3948819999999
97,3.259916211415447,0.06493659985943498,2.352516853598776,0.014029365711468138,27.0,803.3948819999999
98,3.2935235950382866,-0.09299568341476373,2.386124237221616,-0.039282322805372,27.0,803.3948819999999
99,3.3271309786611263,-0.26460329200134314,2.4197316208444555,-0.16030040259933595,27.0,803.3948819999999
100,3.360738362283966,-0.34574319096572015,2.453339004467295,-0.3315286998828508,27.0,803.3948819999999
101,3.3943457459068056,-0.2475587104540412,2.486946388090135,-0.5241075825229323,27.0,803.3948819999999
102,3.4279531295296453,0.0638905668571517,2.5205537717129745,-0.6965435899179429,27.0,803.3948819999999
103,3.461560513152485,0.543916800114762,2.554161155335814,-0.7923642887612456,27.0,803.3948819999999
104,3.4951678967753246,1.0749047069202855,2.5877685389586538,-0.7481671776429077,27.0,803.3948819999999
105,3.5287752803981642,1.5072579263803887,2.6213759225814934,-0.5177641131821761,27.0,803.3948819999999
106,3.562382664021004,1.7213473880956305,2.654983306204333,-0.1041807070172414,27.0,803.3948819999999
107,3.5959900476438436,1.6776162484737338,2.6885906898271728,0.42028225819931603,27.0,803.3948819999999
108,3.629597431266683,1.4243260993006062,2.7221980734500124,0.9244051228110894,27.0,803.3948819999999
109,3.663204814889523,1.0595422183838197,2.7221980734500124,0.9244051228110894,28.0,833.1502479999999
110,3.6968121985123625,0.6753320905754825,2.755805457072852,1.261756191635385,28.0,833.1502479999999
111,3.730419582135202,0.3203484517801641,4.738641090820392,1.301497838116505,-30.0,-892.66098
112,3.764026965758042,-0.002982449104763546,4.772248474443232,1.256436019658965,-30.0,-892.66098
113,3.7976343493808815,-0.31638393964826556,4.805855858066071,0.9102842906727789,-30.0,-892.66098
114,3.831241733003721,-0.6383002096874618,4.839463241688911,0.4329107377931079,-30.0,-892.66098
115,3.864849116626561,-0.9639287891661183,4.873070625311751,0.015465988123084492,-30.0,-892.66098
116,3.8984565002494005,-1.256555830694398,4.90667800893459,-0.2166239396878958,-30.0,-892.66098
117,3.93206388387224,-1.4520949160747858,4.9402853925574295,-0.2513628575720872,-30.0,-892.66098
118,3.96567126749508,-1.4799039467638846,4.97389277618027,-0.17913196414135663,-30.0,-892.66098
119,3.9992786511179195,-1.2986407083736873,5.00750015980311,-0.1318373854228376,-30.0,-892.66098
120,4.032886034740759,-0.9348314325127155,5.041107543425949,-0.2040465130474006,-30.0,-892.66098
121,4.066493418363599,-0.502057842023396,5.074714927048789,-0.3960398831579912,-30.0,-892.66098
122,4.1001008019864384,-0.18007958189426454,5.141929694294468,-0.6936505233988279,-31.0,-922.416346
123,4.1337081856092786,-0.14899134102079262,5.175537077917308,-0.5384136667703021,-31.0,-922.416346
124,4.167315569232118,-0.49778415576269053,5.209144461540147,-0.1360411978413743,-31.0,-922.416346
125,4.200922952854958,-1.1484357462479435,5.242751845162987,0.395011671724392,-31.0,-922.416346
126,4.234530336477797,-1.8441224930486215,5.276359228785827,0.8595581947753909,-31.0,-922.416346
127,4.268137720100637,-2.23251516037417,3.8312417330037216,0.010674777696674421,13.0,386.819758
128,4.301745103723476,-2.028496149189037,3.864849116626561,-0.3125334792281345,13.0,386.819758
129,4.3353524873463165,-1.180978037631026,3.898456500249401,-0.684139993481422,13.0,386.819758
130,4.368959870969156,0.06286802896545682,3.93206388387224,-0.9192155058599175,13.0,386.819758
131,4.402567254591996,1.2625255477641577,3.9656712674950803,-0.8665888312885508,13.0,386.819758
132,4.436174638214835,2.0170203046133195,3.9992786511179195,-0.48446998400143243,13.0,386.819758
133,4.469782021837675,2.183007985790753,4.032886034740759,0.1277191865848256,13.0,386.819758
134,4.503389405460514,1.9296290317740157,4.066493418363599,0.7631467826504238,13.0,386.819758
135,4.5369967890833545,1.590830871972474,4.100100801986439,1.1959496919075525,13.0,386.819758
136,4.570604172706194,1.4225158106901081,4.133708185609278,1.2811917316687251,13.0,386.819758
137,4.604211556329034,1.4415078693431254,4.167315569232118,1.0151350094320475,13.0,386.819758
138,4.637818939951873,1.4547696736834508,4.200922952854958,0.527230361311339,13.0,386.819758
139,4.671426323574713,1.2345811552617514,4.234530336477798,0.013171060564014075,13.0,386.819758
140,4.705033707197552,0.6924992003247266,4.268137720100636,-0.3533560592574768,13.0,386.819758
141,4.738641090820392,-0.06516186957014025,4.301745103723476,-0.4883743664051931,13.0,386.819758
142,4.772248474443232,-0.8054267567785885,4.3353524873463165,-0.41949017345608947,13.0,386.819758
143,4.805855858066072,-1.2842473916853046,4.368959870969157,-0.26022627237967155,13.0,386.819758
144,4.839463241688911,-1.3367292744145574,4.402567254591995,-0.15306268367206663,13.0,386.819758
145,4.873070625311751,-0.921145182237375,4.436174638214835,-0.2048900717583028,13.0,386.819758
146,4.90667800893459,-0.13198555304507267,4.469782021837675,-0.4377280263465232,13.0,386.819758
147,4.94028539255743,0.8109481405345141,4.503389405460515,-0.7723727949038102,13.0,386.819758
148,4.97389277618027,1.6144175508463292,4.536996789083354,-1.0541525759420227,13.0,386.819758
149,5.00750015980311,2.012524606243591,4.570604172706194,-1.1164095293954002,13.0,386.819758
150,5.041107543425949,1.877754637874728,4.604211556329034,-0.8594915162118876,13.0,386.819758
151,5.074714927048789,1.2733231113703174,4.637818939951874,-0.30911355676414914,13.0,386.819758
152,5.108322310671628,0.40932804795894,4.671426323574712,0.3796137257659666,13.0,386.819758
153,5.141929694294468,-0.464697981550498,4.705033707197552,0.9819721827856046,13.0,386.819758
154,5.1755370779173075,-1.156779186127437,4.738641090820392,1.301497838116505,13.0,386.819758
155,5.209144461540148,-1.569226631275698,4.7722484744432325,1.256436019658956,13.0,386.819758
156,5.242751845162987,-1.6844099794489389,4.805855858066071,0.9102842906727789,13.0,386.819758
157,5.276359228785827,-1.5401364876739383,4.839463241688911,0.4329107377931079,13.0,386.819758
158,5.309966612408666,-1.2150375054350981,4.873070625311751,0.015465988123084492,13.0,386.819758
159,5.343573996031506,-0.8121549414699416,4.906678008934591,-0.21662393968789673,13.0,386.819758
160,5.3771813796543455,-0.42989763029905587,4.9402853925574295,-0.2513628575720872,13.0,386.819758
161,5.410788763277186,-0.13406155361643352,4.97389277618027,-0.17913196414135663,13.0,386.819758
162,5.444396146900025,0.048209887310792336,5.00750015980311,-0.1318373854228376,13.0,386.819758
163,5.478003530522865,0.11078880991596421,5.04110754342595,-0.20404651304740568,13.0,386.819758
164,5.511610914145704,0.04516808137243171,5.074714927048788,-0.3960398831579861,13.0,386.819758
165,5.545218297768544,-0.16758942185628828,5.679647832259903,-0.7839889052960529,-4.0,-119.021464
166,5.5788256813913835,-0.5387912911152642,5.713255215882742,-0.7410614360310727,-4.0,-119.021464
167,5.612433065014224,-1.0354405756505172,5.746862599505582,-0.4403921939377047,-4.0,-119.021464
168,5.646040448637063,-1.5504115265779321,5.780469983128421,0.08104621295755751,-4.0,-119.021464
169,5.679647832259903,-1.908458417259801,5.8140773667512615,0.6679969808374833,-4.0,-119.021464
170,5.713255215882742,-1.9200830462290697,5.847684750374101,1.1147289527255753,-4.0,-119.021464
171,5.746862599505582,-1.4667890263842969,3.9320638838722406,-0.9192155058599168,54.0,1606.7897639999999
172,5.780469983128421,-0.5761521820241112,3.96567126749508,-0.8665888312885558,54.0,1606.7897639999999
173,5.8140773667512615,0.5602818559916602,3.99927865111792,-0.4844699840014243,54.0,1606.7897639999999
174,5.847684750374101,1.6472335634878787,4.032886034740759,0.1277191865848256,54.0,1606.7897639999999
175,5.881292133996941,2.397996268681556,6.0157216684882995,-0.15434549198661968,-4.0,-119.021464
176,5.91489951761978,2.6407015924340067,6.049329052111139,-0.3251144937293063,-4.0,-119.021464
177,5.94850690124262,2.3700416654956546,6.082936435733979,-0.3474647920265878,-4.0,-119.021464
178,5.982114284865459,1.7325598426852775,6.116543819356818,-0.33258083179721143,-4.0,-119.021464
179,6.0157216684882995,0.9629530869112652,6.150151202979658,-0.39062109438719556,-4.0,-119.021464
180,6.049329052111139,0.2991431572225712,6.183758586602497,-0.5584010131924781,-4.0,-119.021464
181,6.082936435733979,-0.09534348488668651,5.646040448637063,-0.6520473368011783,13.0,386.819758
182,6.116543819356818,-0.177377837383341,5.679647832259903,-0.7839889052960529,13.0,386.819758
183,6.150151202979658,-0.02562284490860698,5.713255215882743,-0.7410614360310647,13.0,386.819758
184,6.183758586602497,0.2014573608722369,5.746862599505581,-0.4403921939377126,13.0,386.819758
185,6.217365970225337,0.3378461909550616,5.780469983128421,0.08104621295755751,13.0,386.819758
186,6.250973353848177,0.2867081137983699,5.8140773667512615,0.6679969808374833,13.0,386.819758
187,6.284580737471017,0.06449939642480068,5.8140773667512615,0.6679969808374833,14.0,416.57512399999996
188,6.318188121093856,-0.21648942726013198,5.847684750374101,1.1147289527255753,14.0,416.57512399999996
189,6.351795504716696,-0.4197054946509634,5.881292133996941,1.2638701986453933,14.0,416.57512399999996
190,6.385402888339535,-0.46385152525634754,5.91489951761978,1.0816183969300899,14.0,416.57512399999996
191,6.419010271962375,-0.35935527327172767,5.94850690124262,0.668399545388623,14.0,416.57512399999996
192,6.452617655585215,-0.18458361742758134,5.982114284865459,0.20178142779075126,14.0,416.57512399999996
193,6.486225039208055,-0.027320081229569228,6.049329052111139,-0.3251144937293063,13.0,386.819758
194,6.519832422830894,0.0643718858308549,6.082936435733979,-0.3474647920265878,13.0,386.819758
195,6.553439806453734,0.09301419377250576,6.385402888339536,0.7724025415436544,5.0,148.77683
196,6.587047190076573,0.08773541677424282,6.4190102719623745,1.1400945352180356,5.0,148.77683
197,6.620654573699413,0.0719373758425609,6.452617655585215,1.181376262665537,5.0,148.77683
198,6.654261957322253,0.048000146757162084,7.360017013401885,-0.8051750580103225,-21.0,-624.8626859999999
199,6.687869340945093,0.0046766188352533695,7.393624397024725,-0.9028858681909616,-21.0,-624.8626859999999
200,6.721476724567932,-0.06669667464250824,7.124765328042008,0.04983625229413127,-12.0,-357.064392
201,6.755084108190772,-0.16442963685651063,7.158372711664848,-0.22651075060827736,-12.0,-357.064392
202,6.788691491813611,-0.2818712673786003,7.460839164270404,-0.27866219822076094,-20.0,-595.10732
203,6.822298875436451,-0.41655709128462304,7.4944465478932445,0.3400588455369636,-20.0,-595.10732
204,6.8559062590592905,-0.5709850141195802,6.755084108190772,-0.510793920288378,3.0,89.266098
205,6.889513642682131,-0.7419071720290489,6.788691491813612,-0.7732471795919897,3.0,89.266098
206,6.92312102630497,-0.906107749404838,6.82229887543645,-0.929362239182427,3.0,89.266098
207,6.95672840992781,-1.014067835251203,6.8559062590592905,-0.8345725400832656,3.0,89.266098
208,6.990335793550649,-0.9973970677634193,6.889513642682131,-0.4423063669828748,3.0,89.266098
209,7.023943177173489,-0.7892189360599164,6.923121026304971,0.15460728104702187,3.0,89.266098
210,7.0575505607963285,-0.35486210415387365,6.956728409927809,0.7559096397558132,3.0,89.266098
211,7.091157944419169,0.2723390357737889,6.990335793550649,1.146348999281101,3.0,89.266098
212,7.124765328042008,0.9665089340194613,7.023943177173489,1.198586934085581,3.0,89.266098
213,7.158372711664848,1.5235889310329704,7.057550560796329,0.9297699949232661,3.0,89.266098
214,7.191980095287687,1.7314548406439099,7.091157944419168,0.483241510693018,3.0,89.266098
215,7.225587478910527,1.4736597191775116,7.124765328042008,0.04983625229413127,3.0,89.266098
216,7.259194862533366,0.806271460141733,7.158372711664848,-0.22651075060827736,3.0,89.266098
217,7.2928022461562065,-0.049681805949987265,7.191980095287688,-0.31071367679360273,3.0,89.266098
218,7.326409629779046,-0.8057657702058274,7.225587478910526,-0.2780666133484542,3.0,89.266098
219,7.360017013401886,-1.2385113047345342,7.259194862533366,-0.25831655947323523,3.0,89.266098
220,7.393624397024725,-1.2809231116376598,7.259194862533366,-0.25831655947323523,4.0,119.021464
221,7.427231780647565,-1.0281733792818133,7.2928022461562065,-0.35287930169749404,4.0,119.021464
222,7.460839164270404,-0.6646450845689497,7.93134253499016,-0.873989962457376,-14.0,-416.57512399999996
223,7.4944465478932445,-0.3585049996807659,7.964949918613,-0.9350486362770835,-14.0,-416.57512399999996
224,7.528053931516084,-0.18143797750310436,7.998557302235839,-0.724072290320691,-14.0,-416.57512399999996
225,7.561661315138924,-0.09497062515137099,8.032164685858678,-0.2386138225679488,-14.0,-416.57512399999996
226,7.595268698761763,-0.0058702260922082385,8.065772069481518,0.390308611784339,-14.0,-416.57512399999996
227,7.628876082384603,0.1517652780895541,8.099379453104358,0.9508662865398748,-14.0,-416.57512399999996
228,7.662483466007442,0.36916106918982833,8.132986836727198,1.2487105985508293,-14.0,-416.57512399999996
229,7.6960908496302824,0.5834203420656746,8.166594220350039,1.1979126796075954,-14.0,-416.57512399999996
230,7.729698233253122,0.7421806860104333,8.200201603972877,0.8558694131737532,-14.0,-416.57512399999996
231,7.763305616875962,0.8524902594966378,8.233808987595717,0.3862343161988135,-14.0,-416.57512399999996
232,7.796913000498801,0.9718219554487811,8.267416371218555,-0.02633877185234118,-14.0,-416.57512399999996
233,7.830520384121641,1.1515080647809528,8.301023754841395,-0.2629304989290519,-14.0,-416.57512399999996
234,7.86412776774448,1.379449395931347,8.334631138464236,-0.31598095251215924,-14.0,-416.57512399999996
235,7.89773515136732,1.5633871776653125,8.93956404367535,-0.42198679782852183,-31.0,-922.416346
236,7.93134253499016,1.5648635113523215,8.973171427298189,-0.36986801949788667,-31.0,-922.416346
237,7.964949918613,1.2655470669947713,9.746141250623502,-0.5104141995474174,-53.0,-1577.034398
238,7.998557302235839,0.6334994823517209,9.77974863424634,0.10273878891471334,-53.0,-1577.034398
239,8.032164685858678,-0.24294256817326706,9.81335601786918,0.8134613608030481,-53.0,-1577.034398
240,8.065772069481518,-1.1705675432377294,9.84696340149202,1.393557998144639,-53.0,-1577.034398
241,8.099379453104358,-1.9079268996620795,9.88057078511486,1.6558763012209636,-53.0,-1577.034398
242,8.132986836727198,-2.2406460494201728,9.9141781687377,1.5366292421227685,-53.0,-1577.034398
243,8.166594220350037,-2.0577923799806075,9.94778555236054,1.1167776540880396,-53.0,-1577.034398
244,8.200201603972877,-1.415369242090533,8.80513450918399,0.4068550023208004,-18.0,-535.596588
245,8.233808987595717,-0.5570579696981447,8.83874189280683,-0.07457354082068236,-18.0,-535.596588
246,8.267416371218557,0.15060555755739163,8.87234927642967,-0.3767528608069664,-18.0,-535.596588
247,8.301023754841395,0.37838042646401576,8.90595666005251,-0.46757655846396284,-18.0,-535.596588
248,8.334631138464236,0.019854491378706308,8.93956404367535,-0.42198679782852183,-18.0,-535.596588
249,8.368238522087076,-0.7248693351534135,8.97317142729819,-0.36986801949788933,-18.0,-535.596588
250,8.401845905709916,-1.4504087481581511,9.00677881092103,-0.4205327267699378,-18.0,-535.596588
251,8.435453289332754,-1.7816994326628688,9.040386194543867,-0.5997484412813402,-18.0,-535.596588
252,8.469060672955594,-1.5848232161245899,9.073993578166707,-0.8296334713262199,-18.0,-535.596588
253,8.502668056578434,-1.0103789682295836,9.107600961789547,-0.9634225576564601,-18.0,-535.596588
254,8.536275440201274,-0.35174252957510793,9.141208345412387,-0.8616072348618515,-18.0,-535.596588
255,8.569882823824113,0.16888700181904207,9.174815729035227,-0.473200184454852,-18.0,-535.596588
256,8.603490207446953,0.5325225672561021,9.208423112658068,0.12159743222161139,-18.0,-535.596588
257,8.637097591069793,0.8904420585842698,9.242030496280908,0.7349141373997276,-18.0,-535.596588
258,8.670704974692633,1.406786486955779,9.275637879903748,1.1535120808314594,-18.0,-535.596588
259,8.704312358315471,2.0980976280127903,9.309245263526584,1.238052874869203,-18.0,-535.596588
260,8.737919741938311,2.778748534472853,9.342852647149424,0.9862208681497157,-18.0,-535.596588
261,8.771527125561152,3.1423953761578556,9.376460030772265,0.5269285201883667,-18.0,-535.596588
262,8.805134509183992,2.9268933741084506,9.410067414395105,0.05168094756936529,-18.0,-535.596588
263,8.83874189280683,2.0694539442049575,9.443674798017945,-0.2780488057096825,-18.0,-535.596588
264,8.87234927642967,0.7718911052155258,9.443674798017945,-0.2780488057096825,-17.0,-505.84122199999996
265,8.90595666005251,-0.5564089355642334,9.477282181640785,-0.39995785993293925,-17.0,-505.84122199999996
266,8.93956404367535,-1.4581783288900168,9.510889565263625,-0.3656033039672764,-17.0,-505.84122199999996
267,8.973171427298189,-1.6295915363672075,9.544496948886463,-0.29865207918670705,-17.0,-505.84122199999996
268,9.006778810921029,-1.0739210820560094,9.578104332509303,-0.3205293394492846,-17.0,-505.84122199999996
269,9.040386194543869,-0.12088086097859774,9.611711716132143,-0.4799548752949859,-17.0,-505.84122199999996
270,9.073993578166709,0.7195091279353336,9.645319099754984,-0.7197759423670647,-17.0,-505.84122199999996
271,9.107600961789547,1.0072075006432908,9.678926483377822,-0.8982388973756136,-17.0,-505.84122199999996
272,9.141208345412387,0.5913191488331511,9.712533867000662,-0.8577480134200012,-17.0,-505.84122199999996
273,9.174815729035227,-0.3348919275952155,9.746141250623502,-0.5104141995474174,-17.0,-505.84122199999996
274,9.208423112658068,-1.3780264306487922,9.779748634246342,0.10273878891475091,-17.0,-505.84122199999996
275,9.242030496280906,-2.183628468671168,9.81335601786918,0.8134613608030481,-17.0,-505.84122199999996
276,9.275637879903746,-2.600614234767051,9.84696340149202,1.393557998144639,-17.0,-505.84122199999996
277,9.309245263526586,-2.6734632460853365,9.88057078511486,1.6558763012209636,-17.0,-505.84122199999996
278,9.342852647149426,-2.5099887045116516,9.9141781687377,1.5366292421227685,-17.0,-505.84122199999996
279,9.376460030772265,-2.1612076812356706,9.94778555236054,1.1167776540880396,-17.0,-505.84122199999996
280,9.410067414395105,-1.6132491969191862,9.98139293598338,0.5746051649237474,-17.0,-505.84122199999996
281,9.443674798017945,-0.874042643542163,11.191258746405607,-0.23685364774457,-52.0,-1547.279032
282,9.477282181640785,-0.04917916983258801,11.224866130028447,-0.4473185754318652,-52.0,-1547.279032
283,9.510889565263623,0.6808028623810031,11.258473513651285,-0.4638386330459024,-52.0,-1547.279032
284,9.544496948886463,1.1686611699688894,11.292080897274126,-0.4115342076123704,-52.0,-1547.279032
285,9.578104332509303,1.3973825411327176,11.325688280896966,-0.4266929518869565,-52.0,-1547.279032
286,9.611711716132143,1.4805167083624964,8.166594220350039,1.1979126796075954,43.0,1279.480738
287,9.645319099754982,1.5688780898098373,11.359295664519804,-0.5735195997604015,-51.0,-1517.5236659999998
288,9.678926483377822,1.7418137195637584,11.392903048142644,-0.8011273586764239,-51.0,-1517.5236659999998
289,9.712533867000662,1.9599905459849176,11.426510431765484,-0.9648548711379233,-51.0,-1517.5236659999998
290,9.746141250623502,2.0980099472811253,11.460117815388324,-0.9042456344712219,-51.0,-1517.5236659999998
291,9.77974863424634,2.020778023491535,11.493725199011163,-0.5388281140527034,-51.0,-1517.5236659999998
292,9.81335601786918,1.6538409061452062,11.527332582634003,0.07101344358575393,-51.0,-1517.5236659999998
293,9.84696340149202,1.0179219736415586,10.418288923080295,0.4963770965398528,-17.0,-505.84122199999996
294,9.88057078511486,0.2248781161392956,10.451896306703135,0.9656996217259511,-17.0,-505.84122199999996
295,9.914178168737699,-0.5546812691816507,10.485503690325974,1.1102478793213266,-17.0,-505.84122199999996
296,9.94778555236054,-1.1433165404530412,10.519111073948814,0.9256523158481037,-17.0,-505.84122199999996
297,9.98139293598338,-1.419206398212821,10.552718457571654,0.5326568195457828,-17.0,-505.84122199999996
298,10.01500031960622,-1.3682060950263177,10.586325841194494,0.1132176626790167,-17.0,-505.84122199999996
299,10.048607703229058,-1.0941302729168505,10.619933224817332,-0.17602596302851128,-17.0,-505.84122199999996
300,10.082215086851898,-0.7690806110895718,10.653540608440172,-0.27115601514965426,-17.0,-505.84122199999996
301,10.115822470474738,-0.5433980892155004,12.031443336976599,-1.080700440817807,-57.0,-1696.055862
302,10.149429854097578,-0.46807101995373224,12.065050720599439,-0.7575854764995897,-57.0,-1696.055862
303,10.183037237720416,-0.4793978060957267,11.76258426799388,-0.337362034684455,-47.0,-1398.502202
304,10.216644621343256,-0.4548577866170053,11.76258426799388,-0.337362034684455,-46.0,-1368.746836
305,10.250252004966097,-0.300955362697067,12.132265487845117,0.6075601589801742,-56.0,-1666.3004959999998
306,10.283859388588937,-0.013741401734347751,12.165872871467958,1.2532107633238156,-56.0,-1666.3004959999998
307,10.317466772211775,0.3251028832491011,12.199480255090796,1.590572760310906,-56.0,-1666.3004959999998
308,10.351074155834615,0.6062709149679235,12.233087638713636,1.5352122675686235,-56.0,-1666.3004959999998
309,10.384681539457455,0.7586499095941814,12.266695022336476,1.1541761971342999,-56.0,-1666.3004959999998
310,10.418288923080295,0.7789032218488411,12.300302405959316,0.6242935461817778,-56.0,-1666.3004959999998
311,10.451896306703134,0.7143762454451076,12.031443336976597,-1.0807004408178071,-47.0,-1398.502202
312,10.485503690325974,0.6229629937446535,12.065050720599437,-0.7575854764996223,-47.0,-1398.502202
313,10.519111073948814,0.542014849542796,12.098658104222277,-0.1411283234545728,-47.0,-1398.502202
314,10.552718457571654,0.48054325624200184,12.468339324073515,-0.19597940581309653,-57.0,-1696.055862
315,10.586325841194492,0.42686583362185754,12.501946707696353,-0.3018226947078833,-57.0,-1696.055862
316,10.619933224817332,0.35751894622842445,12.535554091319193,-0.5595930387570713,-57.0,-1696.055862
317,10.653540608440172,0.24185023930417993,12.569161474942034,-0.8930171446966513,-57.0,-1696.055862
318,10.687147992063013,0.047375547421167785,12.602768858564874,-1.1470033819651262,-57.0,-1696.055862
319,10.720755375685851,-0.24595165191549548,12.636376242187712,-1.1557557870467334,-57.0,-1696.055862
320,10.754362759308691,-0.6231150029722309,12.669983625810552,-0.8264168390231675,-57.0,-1696.055862
321,10.787970142931531,-1.019026105686062,11.392903048142646,-0.8011273586764326,-18.0,-535.596588
322,10.821577526554371,-1.3322552151997586,11.426510431765486,-0.9648548711379201,-18.0,-535.596588
323,10.85518491017721,-1.4710762019883354,11.460117815388323,-0.9042456344712251,-18.0,-535.596588
324,10.88879229380005,-1.4066824796880137,11.493725199011163,-0.5388281140527034,-18.0,-535.596588
325,10.92239967742289,-1.1960651187411084,11.527332582634003,0.07101344358575393,-18.0,-535.596588
326,10.95600706104573,-0.9552983260368155,11.560939966256843,0.7359242683028434,-18.0,-535.596588
327,10.989614444668568,-0.7979238716055373,11.594547349879683,1.2207373984180245,-18.0,-535.596588
328,11.023221828291408,-0.7742454839322163,11.628154733502523,1.355564331052213,-18.0,-535.596588
329,11.056829211914248,-0.8425166430328342,11.661762117125363,1.1142444269534495,-18.0,-535.596588
330,11.090436595537088,-0.8835182515016812,11.695369500748203,0.6190588903708123,-18.0,-535.596588
331,11.124043979159927,-0.7527119955248496,11.72897688437104,0.07346840433756052,-18.0,-535.596588
332,11.157651362782767,-0.35189177885472894,12.065050720599437,-0.7575854764996223,-27.0,-803.3948819999999
333,11.191258746405607,0.3096557584508196,12.098658104222277,-0.1411283234545728,-27.0,-803.3948819999999
334,11.224866130028447,1.098458880223748,12.132265487845117,0.6075601589801742,-27.0,-803.3948819999999
335,11.258473513651285,1.7999389252820006,11.79619165161672,-0.5265905137757184,-16.0,-476.085856
336,11.292080897274126,2.2018214979965975,11.79619165161672,-0.5265905137757184,-15.0,-446.33049
337,11.325688280896966,2.176849351151241,12.97245007841611,-0.3633097722588322,-49.0,-1458.0129339999999
338,11.359295664519806,1.7309381238534567,10.317466772211777,-1.2126934901759452,31.0,922.416346
339,11.392903048142644,1.0041799861489735,10.351074155834615,-0.7954499147753865,31.0,922.416346
340,11.426510431765484,0.22860307183813072,10.384681539457455,-0.16124277560153183,31.0,922.416346
341,11.460117815388324,-0.3438955490520691,10.418288923080295,0.4963770965398528,31.0,922.416346
342,11.493725199011164,-0.5236847722361428,10.451896306703135,0.9656996217259511,31.0,922.416346
343,11.527332582634003,-0.2527208198548223,10.485503690325974,1.1102478793213266,31.0,922.416346
344,11.560939966256843,0.36292451954116844,10.519111073948814,0.9256523158481037,31.0,922.416346
345,11.594547349879683,1.078817740598822,10.552718457571654,0.5326568195457828,31.0,922.416346
346,11.628154733502523,1.6005576252755753,10.586325841194494,0.1132176626790167,31.0,922.416346
347,11.661762117125361,1.7047204609736795,10.619933224817332,-0.17602596302851128,31.0,922.416346
348,11.695369500748201,1.3343489942851479,10.653540608440172,-0.27115601514965426,31.0,922.416346
349,11.728976884371042,0.6186034065961951,10.653540608440172,-0.27115601514965426,32.0,952.171712
350,11.762584267993882,-0.19182856574738516,10.720755375685853,-0.1433804795587059,31.0,922.416346
351,11.79619165161672,-0.8366102778488498,10.754362759308691,-0.16578492492766445,31.0,922.416346
352,11.82979903523956,-1.1482269424542668,10.787970142931531,-0.33613821211608946,31.0,922.416346
353,11.8634064188624,-1.1007943832273714,10.821577526554371,-0.592037766609756,31.0,922.416346
354,11.89701380248524,-0.7941395487446373,10.855184910177211,-0.781816241701404,31.0,922.416346
355,11.930621186108079,-0.39578832686544774,13.711812518118581,-0.2075214713191769,-53.0,-1577.034398
356,11.964228569730919,-0.07655883074216517,13.711812518118581,-0.2075214713191769,-52.0,-1547.279032
357,11.997835953353759,0.037584467982996764,13.745419901741421,-0.3589937733618579,-52.0,-1547.279032
358,12.031443336976599,-0.1049031085045509,13.779027285364261,-0.6617466737721718,-52.0,-1547.279032
359,12.065050720599437,-0.46687416859890557,14.014278970724138,1.3417732529346063,-58.0,-1725.811228
360,12.098658104222277,-0.9283085856032104,14.047886354346979,1.6175688773581807,-58.0,-1725.811228
361,12.132265487845117,-1.3205325074633387,14.081493737969819,1.48253628460005,-58.0,-1725.811228
362,12.165872871467958,-1.4862435634264486,14.115101121592659,1.027583964327369,-58.0,-1725.811228
363,12.199480255090796,-1.3452610030447418,14.148708505215495,0.445455116616026,-58.0,-1725.811228
364,12.233087638713636,-0.9358025715567017,14.148708505215497,0.44545511661599524,-57.0,-1696.055862
365,12.266695022336476,-0.4065246263706363,14.182315888838337,-0.05909139534291166,-57.0,-1696.055862
366,12.300302405959316,0.04432622398417883,14.215923272461177,-0.35403669946913924,-57.0,-1696.055862
367,12.333909789582155,0.25718764609288597,14.249530656084016,-0.42347608917082097,-57.0,-1696.055862
368,12.367517173204995,0.1812229360401434,14.283138039706856,-0.3568960269314297,-57.0,-1696.055862
369,12.401124556827835,-0.11213368926856507,14.316745423329696,-0.2954303119637751,-57.0,-1696.055862
370,12.434731940450675,-0.47509184845461677,14.350352806952536,-0.36047904893350385,-57.0,-1696.055862
371,12.468339324073513,-0.7551652293295597,14.383960190575374,-0.5931568499793104,-57.0,-1696.055862
372,12.501946707696353,-0.8503032727958569,14.417567574198214,-0.9278103742332868,-57.0,-1696.055862
373,12.535554091319193,-0.7270505338675732,14.451174957821054,-1.2119703881269535,-57.0,-1696.055862
374,12.569161474942034,-0.41017194808830976,14.484782341443895,-1.2693001884706592,-57.0,-1696.055862
375,12.602768858564872,0.03559984834511798,14.518389725066733,-0.9832222820065489,-57.0,-1696.055862
376,12.636376242187712,0.5206289008281348,13.947064203478458,-0.06622107522701307,-39.0,-1160.459274
377,12.669983625810552,0.9467289665693991,13.980671587101298,0.7159691797106139,-39.0,-1160.459274
378,12.703591009433392,1.2307706967981435,14.014278970724138,1.3417732529346063,-39.0,-1160.459274
379,12.73719839305623,1.32914070261865,14.047886354346977,1.617568877358166,-39.0,-1160.459274
380,12.77080577667907,1.2494375123952408,14.081493737969817,1.482536284600074,-39.0,-1160.459274
381,12.80441316030191,1.0433374889729947,14.115101121592657,1.0275839643273998,-39.0,-1160.459274
382,12.83802054392475,0.7864729448445879,14.115101121592659,1.027583964327369,-38.0,-1130.703908
383,12.871627927547589,0.5560681223679906,14.148708505215495,0.445455116616026,-38.0,-1130.703908
384,12.90523531117043,0.414273718972422,14.182315888838335,-0.05909139534288499,-38.0,-1130.703908
385,12.93884269479327,0.39814842680566964,14.215923272461175,-0.3540366994691356,-38.0,-1130.703908
386,12.97245007841611,0.5118117882780601,14.249530656084016,-0.42347608917082097,-38.0,-1130.703908
387,13.006057462038948,0.7196635528136988,14.283138039706856,-0.3568960269314297,-38.0,-1130.703908
388,13.039664845661788,0.9488465124447059,14.316745423329696,-0.2954303119637751,-38.0,-1130.703908
389,13.073272229284628,1.1098343310453365,14.350352806952536,-0.36047904893350385,-38.0,-1130.703908
390,13.106879612907468,1.1301635208562446,14.383960190575376,-0.593156849979328,-38.0,-1130.703908
391,13.140486996530306,0.981711236603847,14.417567574198213,-0.9278103742332692,-38.0,-1130.703908
392,13.174094380153146,0.6838937955241848,14.451174957821053,-1.2119703881269386,-38.0,-1130.703908
393,13.207701763775987,0.2838486306207451,14.484782341443893,-1.2693001884706743,-38.0,-1130.703908
394,13.241309147398827,-0.16794203001235505,14.518389725066733,-0.9832222820065489,-38.0,-1130.703908
395,13.274916531021665,-0.6293187894415107,14.551997108689573,-0.3641584823476783,-38.0,-1130.703908
396,13.308523914644505,-1.064499244117833,14.585604492312413,0.43606489523778624,-38.0,-1130.703908
397,13.342131298267345,-1.438994421798485,15.056107863032167,-1.1750414927516384,-51.0,-1517.5236659999998
398,13.375738681890185,-1.7178573682992726,15.089715246655008,-1.324908210683486,-51.0,-1517.5236659999998
399,13.409346065513024,-1.8657198684848297,15.123322630277846,-1.1401528722036307,-51.0,-1517.5236659999998
400,13.442953449135864,-1.8481576802251187,15.156930013900686,-0.5814461385633499,-51.0,-1517.5236659999998
401,13.476560832758704,-1.6398140230377996,15.190537397523526,0.2341834798510767,-51.0,-1517.5236659999998
402,13.510168216381544,-1.2432726682271285,15.224144781146366,1.0659434615442223,-51.0,-1517.5236659999998
403,13.543775600004382,-0.7125540330702921,15.257752164769204,1.6470604337963493,-51.0,-1517.5236659999998
404,13.577382983627222,-0.16449455432130106,15.291359548392045,1.801352136007771,-51.0,-1517.5236659999998
405,13.610990367250063,0.242536978026227,14.686426643180932,1.6673671985672176,-32.0,-952.171712
406,13.644597750872903,0.37161990013526175,14.720034026803772,1.3253138597905405,-32.0,-952.171712
407,13.678205134495741,0.18895951940264039,14.75364141042661,0.7633330880763806,-32.0,-952.171712
408,13.711812518118581,-0.1902469636605809,13.543775600004382,0.25440843152364295,5.0,148.77683
409,13.745419901741421,-0.5389285732864768,13.577382983627222,-0.1401500389294584,5.0,148.77683
410,13.779027285364261,-0.6325745454985434,15.627433384620442,-0.8400908673007209,-55.0,-1636.54513
411,13.8126346689871,-0.37646922189360005,15.66104076824328,-1.191417673860912,-55.0,-1636.54513
412,13.84624205260994,0.1367574820000518,14.888070944917969,-0.3779563411928022,-31.0,-922.416346
413,13.87984943623278,0.6812592049924412,13.711812518118581,-0.2075214713191769,5.0,148.77683
414,13.91345681985562,1.03096925995249,14.350352806952536,-0.36047904893350385,-13.0,-386.819758
415,13.947064203478458,1.0839449088533306,14.383960190575374,-0.5931568499793104,-13.0,-386.819758
416,13.980671587101298,0.8995725641768502,14.417567574198214,-0.9278103742332868,-13.0,-386.819758
417,14.014278970724138,0.6355777311469706,14.451174957821054,-1.2119703881269535,-13.0,-386.819758
418,14.047886354346979,0.4404767683969218,14.484782341443895,-1.2693001884706592,-13.0,-386.819758
419,14.081493737969817,0.37718291937722154,14.518389725066733,-0.9832222820065489,-13.0,-386.819758
420,14.115101121592657,0.41717191375513285,13.342131298267345,0.37567692095152316,23.0,684.373418
421,14.148708505215497,0.488883932679632,13.375738681890185,1.1043589162211378,23.0,684.373418
422,14.182315888838337,0.5331426086694468,13.409346065513025,1.5665782014230243,23.0,684.373418
423,14.215923272461175,0.5281378749408849,13.442953449135864,1.634873162317345,23.0,684.373418
424,14.249530656084016,0.4796704301551551,13.476560832758704,1.3298869667585658,23.0,684.373418
425,14.283138039706856,0.39849961811230644,14.720034026803772,1.3253138597905405,-13.0,-386.819758
426,14.316745423329696,0.2874612219631356,14.753641410426612,0.7633330880763505,-13.0,-386.819758
427,14.350352806952534,0.1439096793749413,14.78724879404945,0.19375406681118412,-13.0,-386.819758
428,14.383960190575374,-0.03050186545138421,14.85446356129513,-0.38601905412068693,-14.0,-416.57512399999996
429,14.417567574198214,-0.22086079416500803,14.85446356129513,-0.38601905412068693,-13.0,-386.819758
430,14.451174957821054,-0.39475821878237716,14.88807094491797,-0.3779563411927989,-13.0,-386.819758
431,14.484782341443893,-0.5070715686475132,15.526611233751922,-0.31253861414800554,-31.0,-922.416346
432,14.518389725066733,-0.5181137671155779,15.560218617374762,-0.3220288347990124,-31.0,-922.416346
433,14.551997108689573,-0.42031902558262996,15.593826000997602,-0.5047627264910938,-31.0,-922.416346
434,14.585604492312413,-0.2554837699192198,15.627433384620442,-0.8400908673007209,-31.0,-922.416346
435,14.619211875935251,-0.10420804432841543,15.66104076824328,-1.191417673860912,-31.0,-922.416346
436,14.652819259558092,-0.047335725774479386,15.69464815186612,-1.3623311116829633,-31.0,-922.416346
437,14.686426643180932,-0.1211109409327224,15.72825553548896,-1.1898911543495931,-31.0,-922.416346
438,14.720034026803772,-0.2947942924816754,15.7618629191118,-0.6344344299915246,-31.0,-922.416346
439,14.75364141042661,-0.48622519366617506,15.795470302734639,0.18056140435499957,-31.0,-922.416346
440,14.78724879404945,-0.6062062047802157,15.82907768635748,1.0060163792322077,-31.0,-922.416346
441,14.82085617767229,-0.6033933488292856,15.86268506998032,1.570494565306472,-31.0,-922.416346
442,14.85446356129513,-0.48226714867186404,15.89629245360316,1.6994726925471264,-31.0,-922.416346
443,14.888070944917969,-0.2877577498325678,15.929899837225998,1.3892861398088487,-31.0,-922.416346
444,14.921678328540809,-0.0740225473128111,15.963507220848838,0.7986130158512132,-31.0,-922.416346
445,14.955285712163649,0.11793648742407718,15.997114604471678,0.16555455166845615,-31.0,-922.416346
446,14.988893095786489,0.26255727124240735,16.03072198809452,-0.30380391795672884,-31.0,-922.416346
447,15.022500479409327,0.340145374585388,16.064329371717356,-0.5198043880094734,-31.0,-922.416346
448,15.056107863032167,0.3318509272514723,16.097936755340196,-0.5302994729791425,-31.0,-922.416346
449,15.089715246655008,0.2281545277533071,14.921678328540809,-0.3155350703036769,5.0,148.77683
450,15.123322630277848,0.045825950323656134,15.224144781146366,1.0659434615442223,-3.0,-89.266098
451,15.156930013900686,-0.16079090991141226,15.257752164769204,1.6470604337963493,-3.0,-89.266098
452,15.190537397523526,-0.30675524169331625,16.265973673454397,-1.1744916613319951,-32.0,-952.171712
453,15.224144781146366,-0.3042034139034807,16.299581057077233,-1.1525835915502134,-32.0,-952.171712
454,15.257752164769206,-0.10176428350873697,14.551997108689573,-0.3641584823476783,21.0,624.8626859999999
455,15.291359548392045,0.28061074325982893,14.585604492312411,0.4360648952377441,21.0,624.8626859999999
456,15.324966932014885,0.740306369857101,14.619211875935251,1.176962733207236,21.0,624.8626859999999
457,15.358574315637725,1.1182717279481846,14.619211875935253,1.1769627332072599,22.0,654.6180519999999
458,15.392181699260565,1.2604423809791512,14.652819259558093,1.6283449675259778,22.0,654.6180519999999
459,15.425789082883403,1.0889561062255728,14.68642664318093,1.6673671985672156,22.0,654.6180519999999
460,15.459396466506243,0.6449862670938049,14.988893095786487,-0.5228084148803277,14.0,416.57512399999996
461,15.493003850129083,0.07600163185137075,15.022500479409327,-0.8456983314604891,14.0,416.57512399999996
462,15.526611233751924,-0.4294557606289023,15.056107863032167,-1.1750414927516384,14.0,416.57512399999996
463,15.560218617374762,-0.7262571918627967,15.123322630277846,-1.1401528722036307,13.0,386.819758
464,15.593826000997602,-0.7722748688556451,15.123322630277848,-1.140152872203621,14.0,416.57512399999996
465,15.627433384620442,-0.633301705412592,15.156930013900688,-0.5814461385633068,14.0,416.57512399999996
466,15.661040768243282,-0.4343304252378949,15.190537397523528,0.23418347985112067,14.0,416.57512399999996
467,15.69464815186612,-0.28762173228729265,15.224144781146364,1.0659434615441783,14.0,416.57512399999996
468,15.72825553548896,-0.23926897033889274,15.257752164769204,1.6470604337963493,14.0,416.57512399999996
469,15.7618629191118,-0.26219509293140647,15.291359548392045,1.801352136007771,14.0,416.57512399999996
470,15.79547030273464,-0.2924637742308981,15.324966932014885,1.5181523521293008,14.0,416.57512399999996
471,15.82907768635748,-0.2783099870626729,15.358574315637725,0.9475073247912561,14.0,416.57512399999996
472,15.86268506998032,-0.20800116429179866,15.392181699260565,0.3220406421354714,14.0,416.57512399999996
473,15.89629245360316,-0.10472033492808737,15.7618629191118,-0.6344344299915246,4.0,119.021464
474,15.929899837226,-0.0031220457317211493,15.79547030273464,0.18056140435504267,4.0,119.021464
475,15.963507220848838,0.06967193898956595,15.82907768635748,1.0060163792322077,4.0,119.021464
476,15.997114604471678,0.09901996675182544,15.526611233751922,-0.31253861414800554,14.0,416.57512399999996
477,16.030721988094516,0.0810249134270156,16.165151522585873,-0.50168555992827,-4.0,-119.021464
478,16.064329371717356,0.024350299524992375,16.198758906208717,-0.6789127108887533,-4.0,-119.021464
479,16.097936755340196,-0.04536062888700479,16.232366289831553,-0.9550614598016385,-4.0,-119.021464
480,16.131544138963037,-0.08909461684463565,16.265973673454397,-1.1744916613319951,-4.0,-119.021464
481,16.165151522585877,-0.07236057707673027,16.299581057077233,-1.1525835915502134,-4.0,-119.021464
482,16.198758906208717,0.011376618395578035,16.333188440700077,-0.7748173459221213,-4.0,-119.021464
483,16.232366289831557,0.13057689204912523,16.366795824322914,-0.0710546312556183,-4.0,-119.021464
484,16.265973673454397,0.2310419497965506,16.400403207945757,0.7771084322729322,-4.0,-119.021464
485,16.299581057077233,0.2695447979269383,16.434010591568594,1.505811428048081,-4.0,-119.021464
486,16.333188440700074,0.24216047078184183,17.072550880402545,1.7332896948181638,-22.0,-654.6180519999999
487,16.366795824322914,0.18518806528160414,17.106158264025385,1.7006293661634022,-22.0,-654.6180519999999
488,16.400403207945754,0.1458746270537927,17.139765647648225,1.2711836411826325,-22.0,-654.6180519999999
489,16.434010591568594,0.14353091219716788,17.173373031271066,0.651821785758384,-22.0,-654.6180519999999
490,16.467617975191434,0.15141779869423375,17.206980414893906,0.08085744704916432,-22.0,-654.6180519999999
491,16.501225358814274,0.11720195052539328,17.240587798516746,-0.2764933528998616,-22.0,-654.6180519999999
492,16.534832742437114,0.011554271993419695,15.795470302734643,0.1805614043550863,22.0,654.6180519999999
493,16.56844012605995,-0.13007998423778555,15.82907768635748,1.0060163792322077,22.0,654.6180519999999
494,16.60204750968279,-0.20886303028718728,15.86268506998032,1.570494565306472,22.0,654.6180519999999
495,16.63565489330563,-0.116933752656746,15.89629245360316,1.6994726925471264,22.0,654.6180519999999
496,16.66926227692847,0.18385263200112906,17.408624716630943,-0.6892920297483359,-22.0,-654.6180519999999
497,16.70286966055131,0.6106676914865433,17.442232100253783,-1.034581026364509,-22.0,-654.6180519999999
498,16.73647704417415,0.9765460358952187,17.475839483876623,-1.2670961228660693,-22.0,-654.6180519999999
499,16.77008442779699,1.0750136521028992,17.509446867499463,-1.1994008942793302,-22.0,-654.6180519999999
500,16.80369181141983,0.7883858086700143,16.70286966055131,-0.38828444251832317,3.0,89.266098
501,16.837299195042668,0.15795597333848105,16.736477044174148,-0.3732687189285059,3.0,89.266098
502,16.870906578665508,-0.6250619648599716,16.770084427796988,-0.49307545137605374,3.0,89.266098
503,16.90451396228835,-1.3025485898724785,16.803691811419828,-0.792499113323885,3.0,89.266098
504,16.93812134591119,-1.6601334705451893,16.80369181141983,-0.7924991133239168,4.0,119.021464
505,16.97172872953403,-1.6105545132364136,16.837299195042668,-1.1906074098387838,4.0,119.021464
506,17.00533611315687,-1.2168223141748555,16.87090657866551,-1.5061828634809566,4.0,119.021464
507,17.03894349677971,-0.6515622013797782,16.93812134591119,-1.1630402633693364,3.0,89.266098
508,17.07255088040255,-0.11215682723942111,16.97172872953403,-0.41957233217396717,3.0,89.266098
509,17.106158264025385,0.26948526683188156,16.97172872953403,-0.41957233217396717,4.0,119.021464
510,17.139765647648225,0.47546924911486493,17.005336113156865,0.4950199964678885,4.0,119.021464
511,17.173373031271066,0.5805160583432647,17.03894349677971,1.2957913621685253,4.0,119.021464
512,17.206980414893906,0.6758274024009939,17.072550880402545,1.7332896948181638,4.0,119.021464
513,17.240587798516746,0.7920934108907074,17.10615826402539,1.700629366163357,4.0,119.021464
514,17.274195182139586,0.8770858288406127,17.139765647648225,1.2711836411826325,4.0,119.021464
515,17.307802565762426,0.8421193900493821,16.80369181141983,-0.7924991133239168,15.0,446.33049
516,17.341409949385266,0.6383765825365931,16.83729919504267,-1.190607409838817,15.0,446.33049
517,17.375017333008103,0.30290115712877264,16.870906578665508,-1.5061828634809533,15.0,446.33049
518,17.408624716630943,-0.0580248184327519,16.90451396228835,-1.5372392538325772,15.0,446.33049
519,17.442232100253783,-0.33093510038884427,16.93812134591119,-1.1630402633693364,15.0,446.33049
520,17.475839483876623,-0.457000718687057,16.97172872953403,-0.41957233217396717,15.0,446.33049
521,17.509446867499463,-0.45622508144540513,17.00533611315687,0.49501999646798517,15.0,446.33049
522,17.543054251122303,-0.4051312427775263,16.77008442779699,-0.4930754513760664,23.0,684.373418
523,17.576661634745143,-0.3856084159347508,16.77008442779699,-0.4930754513760664,24.0,714.128784
524,17.610269018367983,-0.43619518643969957,16.80369181141983,-0.7924991133239168,24.0,714.128784
525,17.64387640199082,-0.5331889045362508,16.837299195042668,-1.1906074098387838,24.0,714.128784
526,17.67748378561366,-0.6086040292336653,16.870906578665508,-1.5061828634809533,24.0,714.128784
527,17.7110911692365,-0.5894692552017042,16.90451396228835,-1.5372392538325772,24.0,714.128784
528,17.74469855285934,-0.43590746061992497,16.93812134591119,-1.1630402633693364,24.0,714.128784
529,17.77830593648218,-0.16313197842116792,17.8791280873507,-0.49012632864839945,-3.0,-89.266098
530,17.81191332010502,0.1595686524367489,17.91273547097354,-0.43782904602006334,-3.0,-89.266098
531,17.84552070372786,0.43518103018874743,17.03894349677971,1.2957913621685253,24.0,714.128784
532,17.8791280873507,0.5830619377073943,17.07255088040255,1.73328969481821,24.0,714.128784
533,17.912735470973537,0.5789227233380405,17.375017333008103,-0.4170076371971393,16.0,476.085856
534,17.946342854596377,0.46556994462829465,17.408624716630943,-0.6892920297483359,16.0,476.085856
535,17.979950238219217,0.3259741168440266,17.475839483876623,-1.2670961228660693,15.0,446.33049
536,18.013557621842057,0.23537776666118426,17.509446867499463,-1.1994008942793302,15.0,446.33049
537,18.047165005464898,0.2223419322406866,18.78652744516737,-0.9949965215977914,-22.0,-654.6180519999999
538,18.080772389087738,0.2610444975932001,18.82013482879021,-0.16873727343832498,-22.0,-654.6180519999999
539,18.114379772710578,0.2964798315792482,18.85374221241305,0.7633561952157837,-22.0,-654.6180519999999
540,18.147987156333418,0.2846306612490809,18.85374221241305,0.7633561952157837,-21.0,-624.8626859999999
541,18.181594539956254,0.22222179277662638,18.887349596035886,1.5117372572395464,-21.0,-624.8626859999999
542,18.215201923579095,0.14859504821629285,18.920956979658726,1.851727411546484,-21.0,-624.8626859999999
543,18.248809307201935,0.1195288856693477,18.954564363281566,1.7182420096438462,-21.0,-624.8626859999999
544,18.282416690824775,0.16902543152119798,18.988171746904406,1.2229074945527378,-21.0,-624.8626859999999
545,18.316024074447615,0.28222243876014536,19.021779130527246,0.5900986664743016,-21.0,-624.8626859999999
546,18.349631458070455,0.39681462114561405,19.055386514150086,0.050396205430820885,-21.0,-624.8626859999999
547,18.383238841693295,0.433712050067375,19.088993897772927,-0.25446578102462836,-21.0,-624.8626859999999
548,18.416846225316135,0.3400550475068539,19.122601281395767,-0.31523796910673596,-21.0,-624.8626859999999
549,18.45045360893897,0.12060586687860088,19.156208665018603,-0.23724052774881543,-21.0,-624.8626859999999
550,18.484060992561812,-0.1593829245725242,19.189816048641443,-0.17767443688670484,-21.0,-624.8626859999999
551,18.517668376184652,-0.4012312769003438,19.223423432264283,-0.2680583747396603,-21.0,-624.8626859999999
552,18.551275759807492,-0.5174419228767945,19.257030815887124,-0.5512331258837868,-21.0,-624.8626859999999
553,18.584883143430332,-0.4756951687027881,19.290638199509964,-0.9545872697016089,-21.0,-624.8626859999999
554,18.618490527053172,-0.3240336151060593,19.324245583132804,-1.3105164786060102,-21.0,-624.8626859999999
555,18.652097910676012,-0.18159337426992142,19.357852966755644,-1.421382821822205,-21.0,-624.8626859999999
556,18.685705294298852,-0.18942693570662372,19.391460350378484,-1.1485754574322096,-21.0,-624.8626859999999
557,18.71931267792169,-0.43772716366795733,19.42506773400132,-0.48883947164709474,-21.0,-624.8626859999999
558,18.75292006154453,-0.90680591659832,19.45867511762416,0.4022961809630537,-21.0,-624.8626859999999
559,18.78652744516737,-1.4588136394906066,19.492282501247,1.2606686419403101,-21.0,-624.8626859999999
560,18.82013482879021,-1.8901794202835294,19.52588988486984,1.8202556193440877,-21.0,-624.8626859999999
561,18.85374221241305,-2.0189100972309793,19.55949726849268,1.925479212284503,-21.0,-624.8626859999999
562,18.88734959603589,-1.7610609247152536,19.59310465211552,1.5917389137792446,-21.0,-624.8626859999999
563,18.92095697965873,-1.1593497491163463,19.62671203573836,0.9853635998610772,-21.0,-624.8626859999999
564,18.95456436328157,-0.3564245260806262,19.6603194193612,0.338966128005959,-21.0,-624.8626859999999
565,18.988171746904406,0.4656318176232356,19.693926802984038,-0.15024002480415538,-21.0,-624.8626859999999
566,19.021779130527246,1.1475366709573018,19.727534186606878,-0.390838571410014,-21.0,-624.8626859999999
567,19.055386514150086,1.5938804003257028,19.761141570229718,-0.41253298244272246,-21.0,-624.8626859999999
568,19.088993897772927,1.7860108035866185,19.794748953852558,-0.3323087139603944,-21.0,-624.8626859999999
569,19.122601281395767,1.7709932300650995,19.828356337475398,-0.2947806129359422,-21.0,-624.8626859999999
570,19.156208665018607,1.6354350718712058,19.86196372109824,-0.4111664683511003,-21.0,-624.8626859999999
571,19.189816048641447,1.4731964913804139,19.89557110472108,-0.7136356973548956,-21.0,-624.8626859999999
572,19.223423432264287,1.3540439976074106,19.92917848834392,-1.1350436269355986,-21.0,-624.8626859999999
573,19.257030815887124,1.2988620916636493,19.962785871966755,-1.5214354187915369,-21.0,-624.8626859999999
574,19.290638199509964,1.2690736871924124,19.996393255589595,-1.6810118751987484,-21.0,-624.8626859999999
575,19.324245583132804,1.1801070651389949,20.030000639212435,-1.461525255382226,-21.0,-624.8626859999999
576,19.357852966755644,0.9421557044755049,20.063608022835275,-0.8292857450859835,-21.0,-624.8626859999999
577,19.391460350378484,0.5142885815956053,20.097215406458115,0.09016050645424022,-21.0,-624.8626859999999
578,19.425067734001324,-0.0573869083232907,20.130822790080956,1.0410969667844974,-21.0,-624.8626859999999
579,19.458675117624164,-0.6447384203351515,20.164430173703796,1.7343413000741226,-21.0,-624.8626859999999
580,19.492282501247004,-1.0906076807870104,20.198037557326636,1.9688624386038645,-21.0,-624.8626859999999
581,19.52588988486984,-1.2847152096061754,20.231644940949472,1.7163703971845121,-21.0,-624.8626859999999
582,19.55949726849268,-1.2197829440084798,20.265252324572312,1.1250772645690983,-21.0,-624.8626859999999
583,19.59310465211552,-0.993662205828074,19.45867511762416,0.4022961809630537,4.0,119.021464
584,19.62671203573836,-0.7547007369065246,19.492282501247004,1.2606686419404007,4.0,119.021464
585,19.6603194193612,-0.6217466777078821,19.52588988486984,1.8202556193440877,4.0,119.021464
586,19.69392680298404,-0.6247716629503243,19.559497268492684,1.9254792122844677,4.0,119.021464
587,19.72753418660688,-0.6992693717870966,19.59310465211552,1.5917389137792446,4.0,119.021464
588,19.76114157022972,-0.7363229117551393,19.223423432264287,-0.26805837473966987,16.0,476.085856
589,19.794748953852558,-0.6576575578844187,19.257030815887124,-0.5512331258837868,16.0,476.085856
590,19.828356337475398,-0.4689045489605219,19.290638199509964,-0.9545872697016089,16.0,476.085856
591,19.86196372109824,-0.25668249479395383,19.324245583132804,-1.3105164786060102,16.0,476.085856
592,19.89557110472108,-0.13141291168538455,19.357852966755644,-1.421382821822205,16.0,476.085856
593,19.92917848834392,-0.1538241675883537,19.391460350378484,-1.1485754574322096,16.0,476.085856
594,19.96278587196676,-0.29295285660271747,19.425067734001324,-0.48883947164702507,16.0,476.085856
595,19.9963932555896,-0.4416573868916439,19.458675117624164,0.40229618096314784,16.0,476.085856
596,20.03000063921244,-0.4788196846903095,19.492282501247004,1.2606686419404007,16.0,476.085856
597,20.063608022835275,-0.33904692636978895,19.52588988486984,1.8202556193440877,16.0,476.085856
598,20.097215406458115,-0.04750798714783764,19.55949726849268,1.925479212284503,16.0,476.085856
599,20.130822790080956,0.29855222562478734,19.59310465211552,1.5917389137792446,16.0,476.085856
600,20.164430173703796,0.5852925973471087,19.59310465211552,1.5917389137792446,17.0,505.84122199999996
601,20.198037557326636,0.7380540242244589,19.62671203573836,0.9853635998610772,17.0,505.84122199999996
602,20.231644940949476,0.747984803845473,19.6603194193612,0.338966128005959,17.0,505.84122199999996
603,20.265252324572316,0.6636430593593978,19.72753418660688,-0.3908385714100394,16.0,476.085856
604,20.298859708195156,0.5595845318821365,19.76114157022972,-0.41253298244272474,16.0,476.085856
605,20.332467091817993,0.49798450879169204,20.399681859063673,-0.37942390787412406,-2.0,-59.510732
606,20.366074475440833,0.4985812248821899,20.433289242686513,-0.27654914577918965,-2.0,-59.510732
607,20.399681859063673,0.5321107207424642,21.105436915143304,-0.45601327849726464,-21.0,-624.8626859999999
608,20.433289242686513,0.5445248978386972,21.139044298766144,-0.6954478111847096,-21.0,-624.8626859999999
609,20.466896626309353,0.499144826508325,21.172651682388985,-1.0442545570715536,-21.0,-624.8626859999999
610,20.500504009932193,0.406463108154585,21.206259066011825,-1.3357281451670715,-21.0,-624.8626859999999
611,20.534111393555033,0.3167456261602907,21.239866449634665,-1.3750467532498882,-21.0,-624.8626859999999
612,20.567718777177873,0.27891787750952557,21.273473833257505,-1.033484391811298,-21.0,-624.8626859999999
613,20.60132616080071,0.29733120586315553,21.30708121688034,-0.3247993873967515,-21.0,-624.8626859999999
614,20.63493354442355,0.32151478817949947,21.34068860050318,0.5784115888560968,-21.0,-624.8626859999999
615,20.66854092804639,0.27973653545205046,21.340688600503185,0.5784115888561923,-20.0,-595.10732
616,20.70214831166923,0.13457477276046673,21.37429598412602,1.4049471187457425,-20.0,-595.10732
617,20.73575569529207,-0.07850958650771821,21.407903367748865,1.89757697937756,-20.0,-595.10732
618,20.76936307891491,-0.26006548627169596,21.441510751371702,1.9225085953089298,-20.0,-595.10732
619,20.80297046253775,-0.3048018395808941,21.475118134994545,1.5203935471544168,-20.0,-595.10732
620,20.83657784616059,-0.1770512711539867,21.508725518617382,0.8758855283136371,-20.0,-595.10732
621,20.870185229783427,0.04756549599340157,21.54233290224022,0.22627874799956438,-20.0,-595.10732
622,20.903792613406267,0.2119369647311167,20.971007380651947,-0.4361863983209606,-2.0,-59.510732
623,20.937399997029107,0.169867063501587,21.004614764274788,-0.5286114339050542,-2.0,-59.510732
624,20.971007380651947,-0.11722421849938514,21.038222147897628,-0.4640876437433163,-2.0,-59.510732
625,21.004614764274788,-0.5478795488339333,21.071829531520468,-0.3950665525139027,-2.0,-59.510732
626,21.038222147897628,-0.9390197799416402,21.105436915143308,-0.4560132784972711,-2.0,-59.510732
627,21.071829531520468,-1.1382997225210767,21.139044298766148,-0.6954478111847464,-2.0,-59.510732
628,21.105436915143308,-1.1155046994840814,21.172651682388988,-1.0442545570715844,-2.0,-59.510732
629,21.139044298766144,-0.9720744790193888,21.206259066011825,-1.3357281451670715,-2.0,-59.510732
630,21.172651682388985,-0.8641533623870972,21.239866449634665,-1.3750467532498882,-2.0,-59.510732
631,21.206259066011825,-0.8943638708934649,21.273473833257505,-1.033484391811298,-2.0,-59.510732
632,21.239866449634665,-1.0475138189616062,21.273473833257505,-1.033484391811298,-1.0,-29.755366
633,21.273473833257505,-1.2100801717601926,19.492282501247004,1.2606686419404007,53.0,1577.034398
634,21.307081216880345,-1.2503497960012295,19.525889884869844,1.8202556193440989,53.0,1577.034398
635,21.340688600503185,-1.0963048674733369,19.559497268492684,1.9254792122844677,53.0,1577.034398
636,21.374295984126025,-0.7614669072139996,19.593104652115525,1.5917389137791804,53.0,1577.034398
637,21.40790336774886,-0.31707634576803245,19.62671203573836,0.9853635998610772,53.0,1577.034398
638,21.441510751371702,0.1538852127027428,19.6603194193612,0.338966128005959,53.0,1577.034398
639,21.475118134994542,0.5869115058990686,19.69392680298404,-0.1502400248042071,53.0,1577.034398
640,21.508725518617382,0.9432385989819657,19.72753418660688,-0.3908385714100394,53.0,1577.034398
641,21.542332902240222,1.207379426050627,19.76114157022972,-0.41253298244272474,53.0,1577.034398
642,21.575940285863062,1.3874835176741334,19.76114157022972,-0.41253298244272474,54.0,1606.7897639999999
643,21.609547669485902,1.5175137617053318,19.79474895385256,-0.33230871396039047,54.0,1606.7897639999999
644,21.643155053108742,1.6496217393138053,19.8283563374754,-0.29478061293595453,54.0,1606.7897639999999
645,21.67676243673158,1.8284694484874282,19.86196372109824,-0.4111664683511003,54.0,1606.7897639999999
646,21.71036982035442,2.055562918203741,19.89557110472108,-0.7136356973548956,54.0,1606.7897639999999
647,21.74397720397726,2.2669345582653544,19.92917848834392,-1.1350436269355986,54.0,1606.7897639999999
648,21.7775845876001,2.346364870314255,19.96278587196676,-1.5214354187915777,54.0,1606.7897639999999
649,21.81119197122294,2.1766591888806426,19.9963932555896,-1.6810118751987653,54.0,1606.7897639999999
650,21.84479935484578,1.7059878971910163,20.06360802283528,-0.8292857450858864,53.0,1577.034398
651,21.87840673846862,0.9915518062413212,20.09721540645812,0.09016050645434075,53.0,1577.034398
652,21.91201412209146,0.18949535780564808,20.13082279008096,1.0410969667845706,53.0,1577.034398
653,21.9456215057143,-0.5113934512078359,20.1644301737038,1.7343413000741474,53.0,1577.034398
654,21.979228889337136,-0.9780849182342278,20.802970462537747,1.772930749535743,35.0,1041.43781
655,22.012836272959976,-1.1914456743814974,20.836577846160587,1.6229834528614087,35.0,1041.43781
656,22.046443656582817,-1.239963188986752,20.870185229783427,1.1213166599215612,35.0,1041.43781
657,22.080051040205657,-1.2576412544527338,20.903792613406267,0.47448772313297277,35.0,1041.43781
658,22.113658423828497,-1.3480878635569795,20.937399997029107,-0.09404404603754453,35.0,1041.43781
659,22.147265807451337,-1.537857912762593,20.971007380651947,-0.4361863983209606,35.0,1041.43781
660,22.180873191074177,-1.7768305291275914,22.214480574697017,-0.40651827963809145,-1.0,-29.755366
661,22.214480574697017,-1.9748767588480238,22.248087958319857,-0.469115421532678,-1.0,-29.755366
662,22.248087958319854,-2.04981511956701,22.281695341942694,-0.5090375472806702,-1.0,-29.755366
663,22.281695341942694,-1.963341122074355,22.315302725565534,-0.6308004867007782,-1.0,-29.755366
664,22.315302725565534,-1.731704179230675,22.348910109188374,-0.8408545878825316,-1.0,-29.755366
665,22.348910109188374,-1.4105299401697922,22.382517492811214,-1.0356650211149696,-1.0,-29.755366
666,22.382517492811214,-1.06547319344168,22.416124876434054,-1.0566453820407151,-1.0,-29.755366
667,22.416124876434054,-0.7461913968392333,22.449732260056894,-0.7827316399162219,-1.0,-29.755366
668,22.449732260056894,-0.4748550823763227,22.483339643679734,-0.20916076157067828,-1.0,-29.755366
669,22.483339643679734,-0.24781367309443564,22.516947027302574,0.5322123198157992,-1.0,-29.755366
670,22.51694702730257,-0.043249403214010516,22.55055441092541,1.2225463385220667,-1.0,-29.755366
671,22.55055441092541,0.16840173674403397,22.58416179454825,1.648486361544162,-1.0,-29.755366
672,22.58416179454825,0.41091121911866674,22.61776917817109,1.6902403699548387,-1.0,-29.755366
673,22.61776917817109,0.6889322057730817,22.65137656179393,1.3649674226462434,-1.0,-29.755366
674,22.65137656179393,0.9831829801670828,22.68498394541677,0.8102212263667445,-1.0,-29.755366
675,22.68498394541677,1.2587583676104102,22.71859132903961,0.219887204617289,-1.0,-29.755366
676,22.71859132903961,1.4797035070467017,21.676762436731583,-0.4695066300110367,31.0,922.416346
677,22.75219871266245,1.6173351833980791,21.273473833257505,-1.033484391811298,44.0,1309.2361039999998
678,22.785806096285288,1.6498606131019953,22.61776917817109,1.6902403699548387,5.0,148.77683
679,22.81941347990813,1.565741255428925,22.65137656179393,1.3649674226462434,5.0,148.77683
680,22.85302086353097,1.3806778629346106,22.68498394541677,0.8102212263667445,5.0,148.77683
681,22.88662824715381,1.1552384302685206,22.71859132903961,0.219887204617289,5.0,148.77683
682,22.92023563077665,0.9840913562941719,22.012836272959976,1.6722848718248038,27.0,803.3948819999999
683,22.95384301439949,0.9445349810818715,22.046443656582817,1.7586604122305474,27.0,803.3948819999999
684,22.98745039802233,1.0317358106225911,22.080051040205657,1.426986194816535,27.0,803.3948819999999
685,23.02105778164517,1.1326997047548535,22.113658423828497,0.8468910057856758,27.0,803.3948819999999
686,23.054665165268005,1.0732665011132798,22.147265807451333,0.24767163061272568,27.0,803.3948819999999
687,23.088272548890846,0.7219604882201364,22.180873191074173,-0.18986467081945688,27.0,803.3948819999999
688,23.121879932513686,0.08802389785673008,22.214480574697014,-0.4065182796380685,27.0,803.3948819999999
689,23.155487316136526,-0.6563637518743856,22.214480574697014,-0.4065182796380685,28.0,833.1502479999999
690,23.189094699759366,-1.2568711440948088,22.248087958319857,-0.469115421532678,28.0,833.1502479999999
691,23.222702083382206,-1.51795700960251,22.281695341942694,-0.5090375472806702,28.0,833.1502479999999
692,23.256309467005046,-1.4131876218343942,22.315302725565537,-0.6308004867008004,28.0,833.1502479999999
693,23.289916850627886,-1.0907654311632111,22.348910109188374,-0.8408545878825316,28.0,833.1502479999999
694,23.323524234250723,-0.7743206120805018,22.38251749281121,-1.035665021114949,28.0,833.1502479999999
695,23.357131617873563,-0.6311720284958849,22.416124876434054,-1.0566453820407151,28.0,833.1502479999999
696,23.390739001496403,-0.6922912595401002,22.44973226005689,-0.7827316399162508,28.0,833.1502479999999
697,23.424346385119243,-0.8599523686987977,22.449732260056894,-0.7827316399162219,29.0,862.905614
698,23.457953768742083,-0.9803232124675647,22.483339643679734,-0.20916076157067828,29.0,862.905614
699,23.491561152364923,-0.9314305255008591,22.516947027302574,0.5322123198157992,29.0,862.905614
700,23.525168535987763,-0.683799998939915,22.78580609628529,-0.47888720695641723,22.0,654.6180519999999
701,23.558775919610603,-0.3119715660764169,22.819413479908132,-0.5361190817449676,22.0,654.6180519999999
702,23.59238330323344,0.04260879463146494,22.85302086353097,-0.5219194154202245,22.0,654.6180519999999
703,23.62599068685628,0.23770957295689787,22.88662824715381,-0.5694701229542426,22.0,654.6180519999999
704,23.65959807047912,0.19559394613212888,22.92023563077665,-0.7570786994080976,22.0,654.6180519999999
705,23.69320545410196,-0.0601231900027567,22.95384301439949,-1.0566370213378542,22.0,654.6180519999999
706,23.7268128377248,-0.4114080028471982,22.98745039802233,-1.3328566716443218,22.0,654.6180519999999
707,23.76042022134764,-0.6945069778585533,23.02105778164517,-1.400902654757385,22.0,654.6180519999999
708,23.79402760497048,-0.770808652176136,23.05466516526801,-1.1210221357469532,22.0,654.6180519999999
709,23.82763498859332,-0.5888946466461134,23.08827254889085,-0.48441850313805773,22.0,654.6180519999999
710,23.861242372216157,-0.20757723357475813,23.121879932513686,0.35833280744723384,22.0,654.6180519999999
711,23.894849755838997,0.23434103100144132,23.155487316136526,1.1488353538137985,22.0,654.6180519999999
712,23.928457139461837,0.5879200216652067,23.189094699759366,1.631090701344281,22.0,654.6180519999999
713,23.962064523084678,0.7647899963866105,23.222702083382206,1.6645545791260246,22.0,654.6180519999999
714,23.995671906707518,0.7682233152928644,23.256309467005046,1.2819312917942391,22.0,654.6180519999999
715,24.029279290330358,0.6710400438196849,23.289916850627886,0.6645544120602549,22.0,654.6180519999999
716,24.062886673953198,0.5623711585543634,23.894849755839,0.0844712374251879,5.0,148.77683
717,24.096494057576038,0.5015522527512999,23.92845713946184,-0.3992514463735167,5.0,148.77683
718,24.130101441198875,0.5043515725208992,23.962064523084678,-0.6105848996737392,5.0,148.77683
719,24.163708824821715,0.5583662287243705,23.995671906707518,-0.6207708032183179,5.0,148.77683
720,24.197316208444555,0.6442703482992005,24.029279290330358,-0.5884539875361753,5.0,148.77683
721,24.230923592067395,0.7422759544977231,24.062886673953198,-0.6608579376412826,5.0,148.77683
722,24.264530975690235,0.8243350960046522,24.096494057576038,-0.8841316266923283,5.0,148.77683
723,24.298138359313075,0.8517140601990137,24.130101441198878,-1.16783785850081,5.0,148.77683
724,24.331745742935915,0.7944508609901532,24.16370882482172,-1.3240995266366662,5.0,148.77683
725,24.365353126558755,0.6643642708477405,24.19731620844456,-1.1661201619727979,5.0,148.77683
726,24.398960510181592,0.5301808078858807,24.230923592067395,-0.618373914789463,5.0,148.77683
727,24.432567893804432,0.4869831998956058,24.264530975690235,0.2207941433807848,5.0,148.77683
728,24.466175277427272,0.5851968136418444,24.298138359313075,1.103233578782514,5.0,148.77683
729,24.499782661050112,0.7628162900021921,24.331745742935915,1.7353603841708753,5.0,148.77683
730,24.533390044672952,0.8360583657970441,24.365353126558755,1.910711051081366,5.0,148.77683
731,24.566997428295792,0.5741719452329229,24.398960510181595,1.6012432554598226,5.0,148.77683
732,24.600604811918632,-0.16919950144568463,24.432567893804435,0.9608772736473575,5.0,148.77683
733,24.634212195541473,-1.3387657905538703,23.894849755839,0.0844712374251879,22.0,654.6180519999999
734,24.66781957916431,-2.6498104319587505,23.928457139461837,-0.3992514463734944,22.0,654.6180519999999
735,24.70142696278715,-3.6833391876762436,23.962064523084678,-0.6105848996737392,22.0,654.6180519999999
736,24.73503434640999,-4.067264259430674,23.995671906707518,-0.6207708032183179,22.0,654.6180519999999
737,24.76864173003283,-3.6499564352627143,24.029279290330358,-0.5884539875361753,22.0,654.6180519999999
738,24.80224911365567,-2.5702191845498072,24.062886673953198,-0.6608579376412826,22.0,654.6180519999999
739,24.83585649727851,-1.1857559817748005,24.096494057576038,-0.8841316266923283,22.0,654.6180519999999
740,24.86946388090135,0.09665972393676778,24.130101441198878,-1.16783785850081,22.0,654.6180519999999
741,24.90307126452419,0.9945958077108232,24.16370882482172,-1.3240995266366662,22.0,654.6180519999999
742,24.936678648147026,1.4407270799217282,24.197316208444555,-1.1661201619728558,22.0,654.6180519999999
743,24.970286031769866,1.5606672014637903,24.230923592067395,-0.618373914789463,22.0,654.6180519999999
744,25.003893415392707,1.5691843166386974,24.264530975690235,0.2207941433807848,22.0,654.6180519999999
745,25.037500799015547,1.6477918724202754,24.66781957916431,-0.9631282872486768,11.0,327.30902599999996
746,25.071108182638387,1.8611097249616664,24.70142696278715,-1.2603634529322896,11.0,327.30902599999996
747,25.104715566261227,2.1411983281858564,24.73503434640999,-1.4623153747187163,11.0,327.30902599999996
748,25.138322949884067,2.3368355860093906,24.76864173003283,-1.3709929315115261,11.0,327.30902599999996
749,25.171930333506907,2.298910109876457,24.80224911365567,-0.8795809685406463,11.0,327.30902599999996
750,25.205537717129744,1.9585786613827223,24.835856497278506,-0.0481925608406828,11.0,327.30902599999996
751,25.239145100752584,1.3586576340553087,24.869463880901346,0.901082448438056,11.0,327.30902599999996
752,25.272752484375424,0.6243113191839912,24.903071264524186,1.6725787472386695,11.0,327.30902599999996
753,25.306359867998264,-0.10592824005036755,24.936678648147026,2.0261420747304193,11.0,327.30902599999996
754,25.339967251621104,-0.745286018343996,24.970286031769866,1.8813615607594973,11.0,327.30902599999996
755,25.373574635243944,-1.2798356270074258,25.003893415392707,1.344989292746917,11.0,327.30902599999996
756,25.407182018866784,-1.7334006515068001,25.037500799015547,0.6509383820442803,11.0,327.30902599999996
757,25.440789402489624,-2.1034937131370963,25.071108182638387,0.04688584172197838,11.0,327.30902599999996
758,25.47439678611246,-2.3207487677638285,25.104715566261223,-0.3146482433096234,11.0,327.30902599999996
759,25.5080041697353,-2.270727097700941,25.138322949884063,-0.42946594027993024,11.0,327.30902599999996
760,25.54161155335814,-1.8695337929602662,25.171930333506904,-0.4179803753504751,11.0,327.30902599999996
761,25.57521893698098,-1.1419284495536697,25.205537717129744,-0.44092691684312296,11.0,327.30902599999996
762,25.60882632060382,-0.24700997989217088,25.239145100752584,-0.5987370595643979,11.0,327.30902599999996
763,25.64243370422666,0.5697503445755304,25.272752484375424,-0.8660947598320874,11.0,327.30902599999996
764,25.6760410878495,1.0760770620023234,25.306359867998264,-1.0968317257488096,11.0,327.30902599999996
765,25.70964847147234,1.1542028421397208,25.339967251621104,-1.100177323539312,11.0,327.30902599999996
766,25.743255855095178,0.8525690410087428,25.37357463524394,-0.7515847959762021,11.0,327.30902599999996
767,25.77686323871802,0.3605083814306243,25.40718201886678,-0.07887861978397148,11.0,327.30902599999996
768,25.81047062234086,-0.08303429516226292,25.104715566261227,-0.31464824330966157,21.0,624.8626859999999
769,25.8440780059637,-0.30187727500548694,25.138322949884067,-0.4294659402799424,21.0,624.8626859999999
770,25.87768538958654,-0.25982968037235443,25.171930333506907,-0.4179803753504739,21.0,624.8626859999999
771,25.91129277320938,-0.06317254856824392,25.205537717129747,-0.44092691684313967,21.0,624.8626859999999
772,25.94490015683222,0.11380427533537713,25.239145100752587,-0.5987370595644262,21.0,624.8626859999999
773,25.97850754045506,0.13991037010467045,25.272752484375427,-0.8660947598321118,21.0,624.8626859999999
774,26.012114924077895,0.009775769550944061,25.306359867998264,-1.0968317257488096,21.0,624.8626859999999
775,26.045722307700736,-0.1528056753287088,25.339967251621104,-1.100177323539312,21.0,624.8626859999999
776,26.079329691323576,-0.17254641595571044,25.339967251621104,-1.100177323539312,22.0,654.6180519999999
777,26.112937074946416,0.06695753065501851,25.373574635243944,-0.7515847959761652,22.0,654.6180519999999
778,26.146544458569256,0.5437057012591989,25.407182018866784,-0.0788786197839003,22.0,654.6180519999999
779,26.180151842192096,1.0900489303875427,25.440789402489624,0.7273240016803828,22.0,654.6180519999999
780,26.213759225814936,1.4616889574053558,25.474396786112464,1.3907748715765607,22.0,654.6180519999999
781,26.247366609437776,1.4523295076800946,25.508004169735305,1.676337245252415,22.0,654.6180519999999
782,26.280973993060613,1.0005017045148308,25.54161155335814,1.4987231319973338,22.0,654.6180519999999
783,26.314581376683453,0.23359316869241625,25.57521893698098,0.9559457097732829,22.0,654.6180519999999
784,26.348188760306293,-0.579399179375577,25.60882632060382,0.27326955177105394,22.0,654.6180519999999
785,26.381796143929133,-1.1486537302891662,25.64243370422666,-0.30857267853813886,22.0,654.6180519999999
786,26.415403527551973,-1.2971382390839705,26.818692131026047,-0.28289126555767313,-12.0,-357.064392
787,26.449010911174813,-1.0345136516763451,26.85229951464889,-0.6116723835364296,-12.0,-357.064392
788,26.482618294797653,-0.5330413648435453,26.885906898271728,-0.7265920218325266,-12.0,-357.064392
789,26.516225678420493,-0.02798061409191194,26.91951428189457,-0.7629704274651494,-12.0,-357.064392
790,26.54983306204333,0.2937996910947565,26.953121665517408,-0.8685583363869119,-12.0,-357.064392
791,26.58344044566617,0.3591869410019574,26.986729049140244,-1.1133535937512358,-12.0,-357.064392
792,26.61704782928901,0.2085782821741727,27.020336432763088,-1.4393553046871859,-12.0,-357.064392
793,26.65065521291185,-0.05103324611617096,27.053943816385924,-1.678824399335245,-12.0,-357.064392
794,26.68426259653469,-0.3029839632147714,27.053943816385928,-1.6788243993352703,-11.0,-327.30902599999996
795,26.71786998015753,-0.4602367559470647,27.087551200008768,-1.638063142098904,-11.0,-327.30902599999996
796,26.75147736378037,-0.4833356170750381,27.12115858363161,-1.207630064192834,-11.0,-327.30902599999996
797,26.78508474740321,-0.3863260677352695,27.15476596725445,-0.4393040188357187,-11.0,-327.30902599999996
798,26.818692131026047,-0.23074218311746408,27.188373350877285,0.4577013738411988,-11.0,-327.30902599999996
799,26.852299514648887,-0.09781356866106354,27.221980734500125,1.2051458067315426,-11.0,-327.30902599999996
800,26.885906898271728,-0.04200917401857846,26.180151842192096,0.757945701315543,21.0,624.8626859999999
801,26.919514281894568,-0.05357424261904201,26.213759225814936,0.11519909165381095,21.0,624.8626859999999
802,26.953121665517408,-0.06172677081997435,26.247366609437776,-0.3176937774494535,21.0,624.8626859999999
803,26.986729049140248,0.01750914890166196,26.280973993060616,-0.48940944775230155,21.0,624.8626859999999
804,27.020336432763088,0.22096957890853686,26.314581376683456,-0.48547432166164073,21.0,624.8626859999999
805,27.053943816385928,0.5087123306192998,26.348188760306297,-0.46330525970276665,21.0,624.8626859999999
806,27.087551200008765,0.784727339508892,26.381796143929133,-0.5551165077819361,21.0,624.8626859999999
807,27.121158583631605,0.9525064335837563,26.415403527551973,-0.7865110067709041,21.0,624.8626859999999
808,27.154765967254445,0.9711052404082161,26.449010911174813,-1.0519410054545424,21.0,624.8626859999999
809,27.188373350877285,0.8803224281565927,26.482618294797653,-1.162762714367275,21.0,624.8626859999999
810,27.221980734500125,0.7792634997270287,26.516225678420493,-0.9478914000268786,21.0,624.8626859999999
811,27.255588118122965,0.7655546735368042,26.549833062043334,-0.357001128207856,21.0,624.8626859999999
812,27.289195501745805,0.8675965441857707,26.583440445666174,0.49036265706453336,21.0,624.8626859999999
813,27.322802885368645,1.013632737165622,26.617047829289014,1.3411787872115613,21.0,624.8626859999999
814,27.356410268991482,1.0635819956840897,26.65065521291185,1.9161867189645387,21.0,624.8626859999999
815,27.390017652614322,0.8889238517273312,26.68426259653469,2.0332551237282197,21.0,624.8626859999999
816,27.423625036237162,0.45153025482242837,26.71786998015753,1.683459774102297,21.0,624.8626859999999
817,27.457232419860002,-0.16883971536647274,26.75147736378037,1.0239256630834364,21.0,624.8626859999999
818,27.490839803482842,-0.8154514934229574,26.78508474740321,0.29654425085099556,21.0,624.8626859999999
819,27.524447187105682,-1.3376507651809981,26.81869213102605,-0.2828912655577079,21.0,624.8626859999999
820,27.558054570728522,-1.665814919664294,26.81869213102605,-0.2828912655577079,22.0,654.6180519999999
821,27.591661954351363,-1.8371183388749126,26.85229951464889,-0.6116723835364296,22.0,654.6180519999999
822,27.6252693379742,-1.9632240270801442,26.885906898271728,-0.7265920218325266,22.0,654.6180519999999
823,27.65887672159704,-2.16206406718533,26.919514281894568,-0.7629704274651382,22.0,654.6180519999999
824,27.69248410521988,-2.488569500818634,26.953121665517408,-0.8685583363869119,22.0,654.6180519999999
825,27.72609148884272,-2.8942191600109832,26.986729049140248,-1.1133535937512615,22.0,654.6180519999999
826,27.75969887246556,-3.2318988284278243,27.020336432763088,-1.4393553046871859,22.0,654.6180519999999
827,27.7933062560884,-3.305999913100206,27.053943816385928,-1.6788243993352703,22.0,654.6180519999999
828,27.82691363971124,-2.9499631219269564,27.087551200008768,-1.638063142098904,22.0,654.6180519999999
829,27.86052102333408,-2.1002202991549366,27.12115858363161,-1.207630064192834,22.0,654.6180519999999
830,27.894128406956916,-0.8342384953221126,27.154765967254445,-0.4393040188358135,22.0,654.6180519999999
831,27.927735790579757,0.6462855063115694,27.188373350877285,0.4577013738411988,22.0,654.6180519999999
832,27.961343174202597,2.081752478284908,27.221980734500125,1.2051458067315426,22.0,654.6180519999999
833,27.994950557825437,3.2396960704912297,27.255588118122965,1.5825276575248741,22.0,654.6180519999999
834,28.028557941448277,3.978365392034814,27.289195501745805,1.5225769414150085,22.0,654.6180519999999
835,28.062165325071117,4.266338516437187,27.322802885368645,1.125492929749068,22.0,654.6180519999999
836,28.095772708693957,4.164982962968288,27.356410268991485,0.5909341442695928,22.0,654.6180519999999
837,28.129380092316797,3.7938461633975957,27.390017652614326,0.11271842338650992,22.0,654.6180519999999
838,28.162987475939634,3.2923520968958724,27.020336432763084,-1.4393553046871514,34.0,1011.6824439999999
839,28.196594859562474,2.783488727190494,27.053943816385924,-1.678824399335245,34.0,1011.6824439999999
840,28.230202243185314,2.3448317689740525,27.087551200008765,-1.6380631420989495,34.0,1011.6824439999999
841,28.263809626808154,1.9923361177777261,27.121158583631605,-1.2076300641929152,34.0,1011.6824439999999
842,28.297417010430994,1.681565066382501,27.154765967254445,-0.4393040188358135,34.0,1011.6824439999999
843,28.331024394053834,1.3306907593140138,27.591661954351363,-0.2892904290292984,22.0,654.6180519999999
844,28.364631777676674,0.8627299825503775,27.625269337974203,-0.05189520014260577,22.0,654.6180519999999
845,28.398239161299514,0.24911439120303433,27.658876721597043,0.3079413700774069,22.0,654.6180519999999
846,28.43184654492235,-0.47278802786251956,27.2891955017458,1.522576941415015,34.0,1011.6824439999999
847,28.46545392854519,-1.2227001081802527,27.32280288536864,1.1254929297491099,34.0,1011.6824439999999
848,28.49906131216803,-1.9238731770016826,27.356410268991482,0.5909341442696433,34.0,1011.6824439999999
849,28.53266869579087,-2.5332943553994007,27.390017652614322,0.11271842338654331,34.0,1011.6824439999999
850,28.56627607941371,-3.028799153461238,27.423625036237162,-0.20316694406512087,34.0,1011.6824439999999
851,28.59988346303655,-3.3669946019085786,27.457232419860002,-0.3571308507669024,34.0,1011.6824439999999
852,28.63349084665939,-3.4594944014793128,27.490839803482842,-0.41211432189277003,34.0,1011.6824439999999
853,28.66709823028223,-3.2107629009448018,27.92773579057976,-0.5219425225596434,22.0,654.6180519999999
854,28.70070561390507,-2.612348652002892,27.961343174202597,-0.6712508179558996,22.0,654.6180519999999
855,28.73431299752791,-1.8229187441449524,27.994950557825437,-0.6966718312500149,22.0,654.6180519999999
856,28.76792038115075,-1.14219664392841,28.028557941448277,-0.7004123570441619,22.0,654.6180519999999
857,28.80152776477359,-0.8544972407845037,28.062165325071117,-0.7793245547519231,22.0,654.6180519999999
858,28.83513514839643,-1.0332791894093778,28.095772708693957,-0.959561097916206,22.0,654.6180519999999
859,28.86874253201927,-1.4539641268863703,28.129380092316797,-1.1648830412786584,22.0,654.6180519999999
860,28.90234991564211,-1.6964289843587095,28.162987475939637,-1.2428187483916222,22.0,654.6180519999999
861,28.93595729926495,-1.3836676927658835,28.196594859562477,-1.0433884014215635,22.0,654.6180519999999
862,28.969564682887786,-0.4084997847329829,28.230202243185314,-0.5124068776174827,22.0,654.6180519999999
863,29.003172066510626,0.989440536657704,28.263809626808154,0.25415627733361795,22.0,654.6180519999999
864,29.036779450133466,2.338033327286173,29.372853286361863,1.5629698010669992,-10.0,-297.55366
865,29.070386833756306,3.1680073300515796,29.406460669984703,1.9816913117370953,-10.0,-297.55366
866,29.103994217379146,3.2381470442318148,29.440068053607543,1.9116321767068032,-10.0,-297.55366
867,29.137601601001986,2.635833625658683,29.473675437230384,1.4114011863606521,-10.0,-297.55366
868,29.171208984624826,1.711957118967893,29.507282820853224,0.6905624520268262,-10.0,-297.55366
869,29.204816368247666,0.8952946624963531,29.540890204476064,0.002302326340626683,-10.0,-297.55366
870,29.238423751870503,0.48831339902983967,29.5744975880989,-0.4745979359756695,-10.0,-297.55366
871,29.272031135493343,0.547237801502569,29.60810497172174,-0.7038141097916754,-10.0,-297.55366
872,29.305638519116183,0.8943186523006078,29.64171235534458,-0.7787147501015211,-10.0,-297.55366
873,29.339245902739023,1.2363411398627362,29.272031135493343,-0.8028273463140497,2.0,59.510732
874,29.372853286361863,1.3177906379918065,29.305638519116183,-0.09291908713468043,2.0,59.510732
875,29.406460669984703,1.0360723534761889,29.339245902739023,0.7848163419875972,2.0,59.510732
876,29.440068053607543,0.47446761853438635,29.372853286361863,1.5629698010669992,2.0,59.510732
877,29.473675437230384,-0.15254444810612408,29.406460669984703,1.9816913117370953,2.0,59.510732
878,29.50728282085322,-0.6099323080099941,29.44006805360754,1.9116321767068105,2.0,59.510732
879,29.54089020447606,-0.7549332875650271,29.47367543723038,1.411401186360705,2.0,59.510732
880,29.5744975880989,-0.6006956206766635,29.50728282085322,0.6905624520268989,2.0,59.510732
881,29.60810497172174,-0.30338840932477523,29.54089020447606,0.002302326340677097,2.0,59.510732
882,29.64171235534458,-0.078934664755702,29.5744975880989,-0.4745979359756695,2.0,59.510732
883,29.67531973896742,-0.08780636699207778,29.60810497172174,-0.7038141097916754,2.0,59.510732
884,29.70892712259026,-0.346398360877328,29.64171235534458,-0.7787147501015211,2.0,59.510732
885,29.7425345062131,-0.7163518921125228,29.67531973896742,-0.8410776935675378,2.0,59.510732
886,29.776141889835937,-0.9834062768271354,31.3556889201094,-0.5426191003093725,-47.0,-1398.502202
887,29.809749273458777,-0.9841654270936024,29.708927122590257,-0.9787155998352549,3.0,89.266098
888,29.843356657081618,-0.707055158466161,29.742534506213097,-1.1600949259992448,3.0,89.266098
889,29.876964040704458,-0.30556803896601253,29.776141889835937,-1.244648228175155,3.0,89.266098
890,29.910571424327298,-0.011775569256446367,29.809749273458777,-1.0662598611692853,3.0,89.266098
891,29.944178807950138,0.0026266799503852746,29.843356657081618,-0.5445637207960652,3.0,89.266098
892,29.977786191572978,-0.26510141410671556,29.876964040704458,0.24138935240032536,3.0,89.266098
893,30.011393575195818,-0.6418732931788057,29.910571424327298,1.0649268790750972,3.0,89.266098
894,30.045000958818655,-0.8845265799158286,29.944178807950134,1.648448968794297,3.0,89.266098
895,30.078608342441495,-0.8322304566853918,29.977786191572974,1.7938396165771975,3.0,89.266098
896,30.112215726064335,-0.5032662623636507,31.288474152863724,-0.5959617670407023,-35.0,-1041.43781
897,30.145823109687175,-0.07294902626063686,31.322081536486564,-0.5302984196622467,-35.0,-1041.43781
898,30.179430493310015,0.24428607279275033,31.322081536486564,-0.5302984196622467,-34.0,-1011.6824439999999
899,30.213037876932855,0.32234562400142225,31.355688920109404,-0.5426191003093739,-34.0,-1011.6824439999999
900,30.246645260555695,0.18034430204158378,31.389296303732245,-0.6824537647957657,-34.0,-1011.6824439999999
901,30.280252644178535,-0.05146261004094286,29.238423751870506,-1.19038950490591,31.0,922.416346
902,30.313860027801372,-0.21743033237661286,30.21303787693285,-0.7213788273533445,3.0,89.266098
903,30.347467411424212,-0.2158098547517306,30.24664526055569,-0.7681752612414556,3.0,89.266098
904,30.381074795047052,-0.034611955368303006,30.280252644178532,-0.9118892260229947,3.0,89.266098
905,30.414682178669892,0.2594306943829878,29.70892712259026,-0.9787155998352695,21.0,624.8626859999999
906,30.448289562292732,0.5603106145222384,29.7425345062131,-1.160094925999264,21.0,624.8626859999999
907,30.481896945915572,0.7671518024198408,29.77614188983594,-1.244648228175136,21.0,624.8626859999999
908,30.515504329538413,0.8169887434198618,29.80974927345878,-1.0662598611692302,21.0,624.8626859999999
909,30.549111713161253,0.7002914506474713,29.84335665708162,-0.5445637207959821,21.0,624.8626859999999
910,30.58271909678409,0.46046891197649387,31.32208153648656,-0.5302984196622536,-22.0,-654.6180519999999
911,30.61632648040693,0.17864299374219783,32.06144397618903,-0.6309463710908559,-43.0,-1279.480738
912,30.64993386402977,-0.054883399782816214,31.5237258382236,-0.2912985447751188,-26.0,-773.639516
913,30.68354124765261,-0.17464551936942904,31.55733322184644,0.39720362418469446,-26.0,-773.639516
914,30.71714863127545,-0.16443097173944463,31.59094060546928,1.0661032365508643,-26.0,-773.639516
915,30.75075601489829,-0.058397537654074363,30.246645260555695,-0.7681752612414606,15.0,446.33049
916,30.78436339852113,0.08353862679623555,30.280252644178535,-0.9118892260230099,15.0,446.33049
917,30.81797078214397,0.21329901370377588,31.288474152863724,-0.5959617670407023,-14.0,-416.57512399999996
918,30.851578165766806,0.32110715708565307,31.32208153648656,-0.5302984196622536,-14.0,-416.57512399999996
919,30.885185549389647,0.42942585806128786,31.3556889201094,-0.5426191003093725,-14.0,-416.57512399999996
920,30.918792933012487,0.5556149179023975,31.38929630373224,-0.6824537647957454,-14.0,-416.57512399999996
921,30.952400316635327,0.6730590425478639,30.817970782143966,-0.7358769444372905,4.0,119.021464
922,30.986007700258167,0.7070270357424585,30.85157816576681,-0.9198527625819306,4.0,119.021464
923,31.019615083881007,0.5760049971102953,30.885185549389647,-1.0395201609538485,4.0,119.021464
924,31.053222467503847,0.25295227331428627,31.49011845460076,-0.7779824315296686,-13.0,-386.819758
925,31.086829851126687,-0.1968894113971728,31.5237258382236,-0.2912985447751188,-13.0,-386.819758
926,31.120437234749524,-0.631922560570778,31.557333221846438,0.3972036241846217,-13.0,-386.819758
927,31.154044618372364,-0.8990946023355736,31.75897752358348,-0.0010147191943864996,-18.0,-535.596588
928,31.187652001995204,-0.9104177819517464,31.79258490720632,-0.38370392941587383,-18.0,-535.596588
929,31.221259385618044,-0.6873376729050096,31.82619229082916,-0.5244365794721263,-18.0,-535.596588
930,31.254866769240884,-0.3504955615627591,31.859799674452,-0.49356524373264526,-18.0,-535.596588
931,31.288474152863724,-0.06220392706663336,31.89340705807484,-0.4336227237448756,-18.0,-535.596588
932,31.322081536486564,0.04964779920282579,31.355688920109404,-0.5426191003093739,-1.0,-29.755366
933,31.355688920109404,-0.050619256764138934,31.389296303732245,-0.6824537647957657,-1.0,-29.755366
934,31.38929630373224,-0.2961350770033859,31.42290368735508,-0.8742799537652699,-1.0,-29.755366
935,31.42290368735508,-0.5590757974763816,31.45651107097792,-0.9569723083153852,-1.0,-29.755366
936,31.45651107097792,-0.7185974930734985,31.49011845460076,-0.7779824315296686,-1.0,-29.755366
937,31.49011845460076,-0.715444359069392,30.75075601489829,-0.6323138397509173,22.0,654.6180519999999
938,31.5237258382236,-0.5665549357846069,30.78436339852113,-0.6300704064273293,22.0,654.6180519999999
939,31.55733322184644,-0.34130578248410925,30.81797078214397,-0.7358769444373017,22.0,654.6180519999999
940,31.59094060546928,-0.12206925807484241,30.81797078214397,-0.7358769444373017,23.0,684.373418
941,31.62454798909212,0.02716036422399798,30.85157816576681,-0.9198527625819306,23.0,684.373418
942,31.65815537271496,0.07476184761691669,30.885185549389647,-1.0395201609538485,23.0,684.373418
943,31.6917627563378,0.023830705125056546,31.154044618372364,0.6814712738986576,16.0,476.085856
944,31.72537013996064,-0.08926149477563507,31.187652001995204,0.059014859839248826,16.0,476.085856
945,31.75897752358348,-0.2020153618637416,31.221259385618044,-0.3981064909076853,16.0,476.085856
946,31.79258490720632,-0.24615031528267342,31.254866769240884,-0.5994562116750521,16.0,476.085856
947,31.82619229082916,-0.17865293161329932,31.288474152863724,-0.5959617670407023,16.0,476.085856
948,31.859799674452,-0.005290585745163006,31.322081536486564,-0.5302984196622467,16.0,476.085856
949,31.89340705807484,0.22333454650661094,31.355688920109404,-0.5426191003093739,16.0,476.085856
950,31.927014441697676,0.4446318608474906,31.38929630373224,-0.6824537647957454,16.0,476.085856
951,31.960621825320516,0.6237856563359804,31.42290368735508,-0.8742799537652699,16.0,476.085856
952,31.994229208943356,0.771377760760906,30.078608342441495,0.14597980922409426,57.0,1696.055862
953,32.027836592566196,0.925706480716768,30.112215726064335,-0.3927862860151123,57.0,1696.055862
954,32.06144397618903,1.1126897627361616,30.14582310968717,-0.6709584566849607,57.0,1696.055862
955,32.095051359811876,1.3125990206524842,30.179430493310015,-0.7338308763670771,57.0,1696.055862
956,32.12865874343471,1.4578423400075358,30.21303787693285,-0.7213788273533445,57.0,1696.055862
957,32.162266127057556,1.464219614420238,30.246645260555695,-0.7681752612414606,57.0,1696.055862
958,32.19587351068039,1.2763673938678055,30.51550432953841,1.772709816316828,50.0,1487.7683
959,32.22948089430324,0.900799345012197,30.549111713161253,1.6659964382918566,50.0,1487.7683
960,32.26308827792607,0.40851592391709207,32.834413799514344,0.48376132258122573,-17.0,-505.84122199999996
961,32.29669566154892,-0.09382788924811879,32.86802118313719,-0.028304403130963506,-17.0,-505.84122199999996
962,32.33030304517175,-0.5084820949477756,32.901628566760024,-0.3710843042672379,-17.0,-505.84122199999996
963,32.36391042879459,-0.7831674199211085,32.93523595038286,-0.48633553988860323,-17.0,-505.84122199999996
964,32.39751781241743,-0.9225217509893162,30.71714863127545,-0.6474093191794452,50.0,1487.7683
965,32.43112519604027,-0.9744111330478628,30.750756014898286,-0.6323138397509188,50.0,1487.7683
966,32.464732579663114,-1.004385671721897,30.78436339852113,-0.6300704064273293,50.0,1487.7683
967,32.49833996328595,-1.0705930549685498,31.187652001995204,0.059014859839248826,39.0,1160.459274
968,32.531947346908794,-1.2017934995338926,31.221259385618048,-0.39810649090770656,39.0,1160.459274
969,32.56555473053163,-1.3777832477648153,31.254866769240884,-0.5994562116750521,39.0,1160.459274
970,32.59916211415447,-1.5204986267088503,31.28847415286372,-0.5959617670407026,39.0,1160.459274
971,32.63276949777731,-1.5131998615297073,31.322081536486564,-0.5302984196622467,39.0,1160.459274
972,32.66637688140015,-1.256330165221555,31.3556889201094,-0.5426191003093725,39.0,1160.459274
973,32.69998426502299,-0.7396645218619273,31.389296303732245,-0.6824537647957657,39.0,1160.459274
974,32.73359164864583,-0.08330981382889105,31.960621825320516,-0.6211043755127783,23.0,684.373418
975,32.76719903226867,0.494780134018119,31.99422920894336,-0.8014889755332417,23.0,684.373418
976,32.80080641589151,0.7824253455987044,32.027836592566196,-0.8484734923195727,23.0,684.373418
977,32.83441379951435,0.6914133550244117,32.06144397618904,-0.6309463710907514,23.0,684.373418
978,32.86802118313719,0.3143588320552958,32.095051359811876,-0.13638597808591915,23.0,684.373418
979,32.901628566760024,-0.12103735843836037,32.12865874343471,0.5008503029835355,23.0,684.373418
980,32.93523595038287,-0.37555164209996594,32.162266127057556,1.053485158461419,23.0,684.373418
981,32.968843334005705,-0.3242321847972419,32.19587351068039,1.31062377570231,23.0,684.373418
982,33.00245071762855,-0.009396861292645385,32.22948089430324,1.181866713345176,23.0,684.373418
983,33.036058101251385,0.4040053779020972,32.26308827792607,0.7386387317758026,23.0,684.373418
984,33.06966548487423,0.7338755127750478,32.33030304517175,-0.30496078906989965,22.0,654.6180519999999
985,33.103272868497065,0.8798156410216486,32.36391042879459,-0.5606955323855158,22.0,654.6180519999999
986,33.1368802521199,0.8624016481866107,32.397517812417426,-0.5937580305976203,22.0,654.6180519999999
987,33.170487635742745,0.7921237619132069,32.43112519604027,-0.5127540771992833,22.0,654.6180519999999
988,33.20409501936558,0.7965232550356923,32.46473257966311,-0.4580010191443985,22.0,654.6180519999999
989,33.237702402988425,0.9482347145189536,32.49833996328595,-0.5111280850735923,22.0,654.6180519999999
990,33.27130978661126,1.225379736940677,32.53194734690879,-0.6425076431721872,22.0,654.6180519999999
991,33.304917170234106,1.515764737195805,32.56555473053163,-0.7265955109447441,22.0,654.6180519999999
992,33.33852455385694,1.6609625300171074,32.59916211415447,-0.6183564033960692,22.0,654.6180519999999
993,33.372131937479786,1.5249799258881986,33.170487635742745,-0.6770678263456396,6.0,178.532196
994,33.40573932110262,1.0611489490563815,33.20409501936558,-0.2530264728606535,6.0,178.532196
995,33.43934670472546,0.345417881146711,33.23770240298842,0.34799973578248344,6.0,178.532196
996,33.4729540883483,-0.4460703693574624,33.304917170234106,1.2540282688996216,5.0,148.77683
997,33.50656147197114,-1.11107195138324,33.33852455385694,1.2289373387877491,5.0,148.77683
998,33.54016885559398,-1.5120663819857474,33.372131937479786,0.8776398934360121,5.0,148.77683
999,33.57377623921682,-1.6325649998121972,33.40573932110262,0.35889906402722216,5.0,148.77683
1000,33.60738362283966,-1.5628479517230651,33.439346704725466,-0.12473657300497706,5.0,148.77683
1001,33.6409910064625,-1.4245216678660297,33.43934670472546,-0.1247365730049136,6.0,178.532196
1002,33.674598390085336,-1.2886569081392945,33.472954088348295,-0.42492420240565876,6.0,178.532196
1003,33.70820577370818,-1.1466224600055939,33.50656147197114,-0.5097326047673314,6.0,178.532196
1004,33.741813157331016,-0.947853051600916,33.540168855593976,-0.46100662599060516,6.0,178.532196
1005,33.77542054095386,-0.6651090617740103,34.1451017608051,-0.3859286663645602,-11.0,-327.30902599999996
1006,33.8090279245767,-0.3333178664260384,34.178709144427934,-0.5133048961035166,-11.0,-327.30902599999996
1007,33.84263530819954,-0.038335543983080735,34.21231652805078,-0.6868975112825119,-11.0,-327.30902599999996
1008,33.87624269182238,0.1281542083284047,34.245923911673614,-0.7584461022358528,-11.0,-327.30902599999996
1009,33.90985007544522,0.11517627738254423,34.27953129529646,-0.5913169028590528,-11.0,-327.30902599999996
1010,33.94345745906806,-0.061840446640354124,34.313138678919294,-0.1509850160949631,-11.0,-327.30902599999996
1011,33.97706484269089,-0.32155815667144805,34.34674606254213,0.4560720571840552,-11.0,-327.30902599999996
1012,34.01067222631374,-0.5403599424957088,34.380353446164975,1.021613829993923,-11.0,-327.30902599999996
1013,34.044279609936574,-0.5937461264462521,34.41396082978781,1.3341897662781887,-11.0,-327.30902599999996
1014,34.07788699355942,-0.40470923241839085,34.447568213410655,1.2825709184792553,-11.0,-327.30902599999996
1015,34.111494377182254,0.019770900189714124,34.48117559703349,0.9069770731166605,-11.0,-327.30902599999996
1016,34.1451017608051,0.5835492870732994,34.514782980656335,0.3723433704729135,-11.0,-327.30902599999996
1017,34.178709144427934,1.1340289671291337,34.54839036427917,-0.11814539315478674,-11.0,-327.30902599999996
1018,34.21231652805077,1.5200155665136406,34.58199774790201,-0.4209554030905486,-11.0,-327.30902599999996
1019,34.245923911673614,1.6492444124044607,34.61560513152485,-0.5113978329473936,-11.0,-327.30902599999996
1020,34.27953129529645,1.5205012765496266,34.64921251514769,-0.47728116201943566,-11.0,-327.30902599999996
1021,34.313138678919294,1.216100380191456,34.68281989877053,-0.4543158254034259,-11.0,-327.30902599999996
1022,34.34674606254213,0.8570593061707404,33.607383622839656,-0.460290567998312,22.0,654.6180519999999
1023,34.380353446164975,0.5416888102409156,33.6409910064625,-0.6048556457478862,22.0,654.6180519999999
1024,34.41396082978781,0.30065792148668,33.674598390085336,-0.7415997467971674,22.0,654.6180519999999
1025,34.447568213410655,0.0964129111079704,34.245923911673614,-0.7584461022358528,6.0,178.532196
1026,34.48117559703349,-0.1312208407663807,34.27953129529645,-0.591316902859146,6.0,178.532196
1027,34.51478298065633,-0.403468493859734,34.31313867891929,-0.15098501609505616,6.0,178.532196
1028,34.54839036427917,-0.6690085592712159,34.380353446164975,1.021613829993923,5.0,148.77683
1029,34.58199774790201,-0.8253359034262641,34.41396082978781,1.3341897662781887,5.0,148.77683
1030,34.61560513152485,-0.7842841314618973,34.111494377182254,-0.3763425938760256,15.0,446.33049
1031,34.64921251514769,-0.5373111167124452,34.14510176080509,-0.38592866636455814,15.0,446.33049
1032,34.68281989877053,-0.17255441354381504,34.178709144427934,-0.5133048961035166,15.0,446.33049
1033,34.71642728239337,0.17116428868545114,34.54839036427917,-0.11814539315478674,5.0,148.77683
1034,34.750034666016205,0.38250526156808057,35.11971588586744,-0.19734305619940473,-11.0,-327.30902599999996
1035,34.78364204963905,0.4342803354932785,35.153323269490286,-0.4038433484648803,-11.0,-327.30902599999996
1036,34.817249433261885,0.37996954604944844,35.22053803673596,-0.37079668292237045,-12.0,-357.064392
1037,34.85085681688473,0.29363229209103286,34.91807158413041,0.5716067667150455,-2.0,-59.510732
1038,34.884464200507566,0.20039957153253485,34.951678967753246,1.110092646743798,-2.0,-59.510732
1039,34.91807158413041,0.05637589021818347,34.98528635137609,1.3364962669509168,-2.0,-59.510732
1040,34.951678967753246,-0.2012766563832638,35.018893734998926,1.1857013135045853,-2.0,-59.510732
1041,34.98528635137609,-0.5747488687754921,35.05250111862177,0.7492655801058029,-2.0,-59.510732
1042,35.018893734998926,-0.9671719458017741,35.086108502244606,0.22238980327149016,-2.0,-59.510732
1043,35.05250111862176,-1.2250654270633095,35.422182338473,-0.36013099353171296,-11.0,-327.30902599999996
1044,35.086108502244606,-1.2347216423418983,35.455789722095844,0.2884748559440527,-11.0,-327.30902599999996
1045,35.11971588586744,-0.9998674911132795,36.63204814889523,0.9520841842007228,-45.0,-1338.99147
1046,35.153323269490286,-0.6416162930855119,35.79186355832424,-0.47975178263100127,-19.0,-565.351954
1047,35.18693065311312,-0.3227110739844469,35.79186355832424,-0.47975178263100127,-18.0,-535.596588
1048,35.22053803673597,-0.1534481404334448,35.82547094194708,-0.511355766103903,-18.0,-535.596588
1049,35.2541454203588,-0.14126166626295406,35.85907832556992,-0.6916440205445044,-18.0,-535.596588
1050,35.28775280398164,-0.20445639437005497,34.615605131524845,-0.5113978329473745,20.0,595.10732
1051,35.32136018760448,-0.22662409268506584,34.64921251514769,-0.47728116201943566,20.0,595.10732
1052,35.35496757122732,-0.11556872947123387,34.682819898770525,-0.45431582540343074,20.0,595.10732
1053,35.388574954850164,0.1555369312720805,34.71642728239337,-0.5389955256068212,20.0,595.10732
1054,35.422182338473,0.5326932449196637,34.750034666016205,-0.725362340188906,20.0,595.10732
1055,35.455789722095844,0.8972242006489551,34.78364204963905,-0.9006341399968186,20.0,595.10732
1056,35.48939710571868,1.116269871927158,34.817249433261885,-0.9052848632536082,20.0,595.10732
1057,35.523004489341524,1.1109900118001985,35.388574954850164,-0.7775596564605893,4.0,119.021464
1058,35.55661187296436,0.9035535129520288,35.422182338473,-0.36013099353171296,4.0,119.021464
1059,35.5902192565872,0.6083363769898055,35.45578972209584,0.28847485594391553,4.0,119.021464
1060,35.62382664021004,0.36877882429072684,35.48939710571868,0.9597512778857499,4.0,119.021464
1061,35.65743402383288,0.2790734499188339,35.52300448934152,1.4094625566137111,4.0,119.021464
1062,35.69104140745572,0.3378969165065536,35.55661187296436,1.474164126917875,4.0,119.021464
1063,35.72464879107856,0.45756837529389877,35.5902192565872,1.1479567558580321,4.0,119.021464
1064,35.7582561747014,0.5179298143735799,35.62382664021004,0.5794441685756734,4.0,119.021464
1065,35.79186355832424,0.4318711294063916,35.65743402383288,-0.006269623132539021,4.0,119.021464
1066,35.825470941947074,0.18868854987653733,35.691041407455714,-0.41687208847901536,4.0,119.021464
1067,35.85907832556992,-0.14127855136111925,36.295974312666836,-0.5068215331125278,-13.0,-386.819758
1068,35.892685709192754,-0.43688632793352894,36.32958169628967,-0.4947806068497126,-13.0,-386.819758
1069,35.9262930928156,-0.5771191524863034,36.363189079912516,-0.4421886259036188,-13.0,-386.819758
1070,35.959900476438435,-0.49619967313902863,35.85907832556992,-0.6916440205445044,3.0,89.266098
1071,35.99350786006128,-0.22271698401323647,35.89268570919276,-0.9390264217020545,3.0,89.266098
1072,36.027115243684115,0.12009561373182821,35.9262930928156,-1.0787880123287457,3.0,89.266098
1073,36.06072262730696,0.364736634833576,35.95990047643844,-0.9376944366547899,3.0,89.266098
1074,36.094330010929795,0.3837240096868247,35.99350786006128,-0.44925546062260246,3.0,89.266098
1075,36.12793739455263,0.16224811377027412,36.027115243684115,0.2892039158167587,3.0,89.266098
1076,36.161544778175475,-0.1891106855462594,36.06072262730696,1.0448022722949388,3.0,89.266098
1077,36.19515216179831,-0.49652154385911507,36.094330010929795,1.5528443974116268,3.0,89.266098
1078,36.228759545421156,-0.6252094577146794,36.12793739455264,1.6414401981691793,3.0,89.266098
1079,36.26236692904399,-0.5577692515309783,36.161544778175475,1.3095235862045753,3.0,89.266098
1080,36.295974312666836,-0.3979381909591567,36.19515216179832,0.7184179439964609,3.0,89.266098
1081,36.32958169628967,-0.2974498430173828,36.228759545421156,0.10602103956877519,3.0,89.266098
1082,36.36318907991251,-0.3544142392200164,36.26236692904399,-0.3278834334354737,3.0,89.266098
1083,36.39679646353535,-0.5506518899168665,36.295974312666836,-0.5068215331125278,3.0,89.266098
1084,36.43040384715819,-0.7670046573562087,36.32958169628967,-0.4947806068497126,3.0,89.266098
1085,36.46401123078103,-0.8598667488390308,36.363189079912516,-0.4421886259036188,3.0,89.266098
1086,36.49761861440387,-0.7440720711200145,36.39679646353535,-0.49113280585855484,3.0,89.266098
1087,36.53122599802671,-0.43426625718106737,36.430403847158196,-0.6883809764657711,3.0,89.266098
1088,36.56483338164955,-0.03246113109564151,36.46401123078103,-0.9509527997524144,3.0,89.266098
1089,36.59844076527239,0.3210620520938831,36.497618614403876,-1.1043736722201194,3.0,89.266098
1090,36.63204814889523,0.5071224147879065,36.53122599802671,-0.9774921064284121,3.0,89.266098
1091,36.665655532518066,0.47423567676985373,36.56483338164955,-0.5058950092379993,3.0,89.266098
1092,36.69926291614091,0.25729898001338153,36.59844076527239,0.21356740199053675,3.0,89.266098
1093,36.732870299763746,-0.03628249695796006,36.63204814889523,0.9520841842007228,3.0,89.266098
1094,36.76647768338659,-0.26700978148436433,36.66565553251807,1.4510405294382804,3.0,89.266098
1095,36.80008506700943,-0.31611867264838056,36.69926291614091,1.5433842950406076,3.0,89.266098
1096,36.83369245063227,-0.13216401752574924,36.73287029976375,1.2288696631770704,3.0,89.266098
1097,36.86729983425511,0.24638607783792438,36.76647768338659,0.664834265193026,3.0,89.266098
1098,36.90090721787794,0.7024917592646863,36.80008506700943,0.08159837319502534,3.0,89.266098
1099,36.93451460150079,1.0837579315665749,37.371410588597705,-0.08198361695407927,-13.0,-386.819758
1100,36.968121985123624,1.262690042812025,37.40501797222054,-0.44775984937892815,-13.0,-386.819758
1101,37.00172936874647,1.188673266535475,37.438625355843385,-0.552352077588715,-13.0,-386.819758
1102,37.035336752369304,0.9061754103864,37.47223273946622,-0.48552665834490655,-13.0,-386.819758
1103,37.06894413599215,0.529963573252621,37.505840123089065,-0.4113273295908043,-13.0,-386.819758
1104,37.102551519614984,0.1916150699383478,37.5394475067119,-0.47342157849990235,-13.0,-386.819758
1105,37.13615890323783,-0.015503576011724415,37.573054890334745,-0.7124969301259179,-13.0,-386.819758
1106,37.169766286860664,-0.07001200863259542,37.60666227395758,-1.0349766126912137,-13.0,-386.819758
1107,37.2033736704835,-0.02536382492666314,37.64026965758042,-1.2506509495000977,-13.0,-386.819758
1108,37.236981054106344,0.017868913025562427,37.67387704120326,-1.1660256267814517,-13.0,-386.819758
1109,37.27058843772918,-0.03589217835900773,37.7074844248261,-0.6911272369424688,-13.0,-386.819758
1110,37.304195821352025,-0.21799875831650942,37.74109180844894,0.09521450195964203,-13.0,-386.819758
1111,37.33780320497486,-0.4630606656654483,37.77469919207178,0.9612048552020485,-13.0,-386.819758
1112,37.371410588597705,-0.6368140400209393,38.379632097282894,1.469716759654294,-30.0,-892.66098
1113,37.40501797222054,-0.6222102802089612,38.41323948090573,1.656096839446036,-30.0,-892.66098
1114,37.43862535584338,-0.40986810999733175,38.44684686452857,1.3930248881307734,-30.0,-892.66098
1115,37.47223273946622,-0.12094502903542521,38.48045424815141,0.8185891707813601,-30.0,-892.66098
1116,37.50584012308906,0.06599735170249055,38.51406163177425,0.17427023878139686,-30.0,-892.66098
1117,37.5394475067119,0.037519480261209805,38.54766901539709,-0.3158081097927778,-30.0,-892.66098
1118,37.57305489033474,-0.17140853363996827,38.61488378264277,-0.5632308003215654,-31.0,-922.416346
1119,37.60666227395758,-0.39494692907504714,38.648491166265615,-0.5149477083833964,-31.0,-922.416346
1120,37.64026965758042,-0.4447646664960174,38.68209854988845,-0.5522442771876676,-31.0,-922.416346
1121,37.67387704120326,-0.2380083490502189,38.715705933511295,-0.7305407093782699,-31.0,-922.416346
1122,37.7074844248261,0.13899440622195644,38.74931331713413,-0.9679848022939967,-31.0,-922.416346
1123,37.741091808448935,0.474557125947961,38.78292070075697,-1.0842069985964593,-31.0,-922.416346
1124,37.77469919207178,0.5569695196334249,38.81652808437981,-0.9024689521970013,-31.0,-922.416346
1125,37.808306575694616,0.3007521595380208,38.816528084379804,-0.9024689521971156,-30.0,-892.66098
1126,37.84191395931746,-0.20742372203734785,38.88374285162549,0.42718332717198865,-31.0,-922.416346
1127,37.875521342940296,-0.7673095258831357,38.91735023524833,1.2119472055927776,-31.0,-922.416346
1128,37.90912872656314,-1.1793048906777477,38.95095761887117,1.7137748926884628,-31.0,-922.416346
1129,37.942736110185976,-1.334632149906241,38.98456500249401,1.757365754100913,-31.0,-922.416346
1130,37.97634349380881,-1.2348536318193726,39.589497907705116,1.6066844272147232,-48.0,-1428.257568
1131,38.009950877431656,-0.9536203079317781,39.62310529132796,0.948678284017932,-48.0,-1428.257568
1132,38.04355826105449,-0.5837447151247301,39.656712674950796,0.22702227452144347,-48.0,-1428.257568
1133,38.077165644677336,-0.19964226787306932,39.69032005857364,-0.31849186249499184,-48.0,-1428.257568
1134,38.11077302830017,0.16015459578777935,39.72392744219648,-0.5683168067855726,-48.0,-1428.257568
1135,38.14438041192302,0.49451891850503366,39.75753482581932,-0.5580280073467287,-48.0,-1428.257568
1136,38.17798779554585,0.8245862413482353,39.79114220944216,-0.44154728757863654,-48.0,-1428.257568
1137,38.2115951791687,1.1621473159549396,39.824749593065,-0.4041637872142953,-48.0,-1428.257568
1138,38.24520256279153,1.475653425386941,39.85835697668784,-0.564692014185359,-48.0,-1428.257568
1139,38.27880994641437,1.6809994507224655,39.89196436031067,-0.9089040601078124,-48.0,-1428.257568
1140,38.31241733003721,1.6763164003619995,39.92557174393352,-1.2847790752492982,-48.0,-1428.257568
1141,38.34602471366005,1.407731490397057,39.959179127556354,-1.4664628099961987,-48.0,-1428.257568
1142,38.379632097282894,0.9211308767229895,39.9927865111792,-1.2634800859625526,-48.0,-1428.257568
1143,38.41323948090573,0.35667094428035034,40.026393894802034,-0.6259626021980539,-48.0,-1428.257568
1144,38.446846864528574,-0.11719797751118251,40.06000127842488,0.30897691225061485,-48.0,-1428.257568
1145,38.48045424815141,-0.38837867272678706,40.093608662047714,1.2602816796457812,-48.0,-1428.257568
1146,38.51406163177425,-0.44986579282381356,40.12721604567055,1.9198254021813166,-48.0,-1428.257568
1147,38.54766901539709,-0.3842684979159975,40.160823429293394,2.0858334115546775,-48.0,-1428.257568
1148,38.58127639901993,-0.2986328771628926,40.19443081291623,1.7455093557917927,-48.0,-1428.257568
1149,38.61488378264277,-0.254944008833906,40.228038196539075,1.068238770724932,-48.0,-1428.257568
1150,38.64849116626561,-0.24299441783670356,36.76647768338658,0.6648342651931453,56.0,1666.3004959999998
1151,38.68209854988845,-0.21270746971811505,40.63132680001315,-1.2964220452223931,-58.0,-1725.811228
1152,38.71570593351129,-0.13921751553001854,40.664934183635985,-0.5883192288058101,-58.0,-1725.811228
1153,38.74931331713413,-0.066554064649059,40.69854156725883,0.38373923888557193,-58.0,-1725.811228
1154,38.78292070075697,-0.08922290026554322,36.90090721787794,-0.49396336460313056,56.0,1666.3004959999998
1155,38.816528084379804,-0.27966316023477095,36.968121985123624,-0.5148771361513653,55.0,1636.54513
1156,38.85013546800265,-0.6162530489594915,37.00172936874647,-0.6985550301952158,55.0,1636.54513
1157,38.883742851625485,-0.9715967314430091,37.00172936874647,-0.6985550301952158,56.0,1666.3004959999998
1158,38.91735023524833,-1.1772273444524632,37.035336752369304,-0.9127021233373964,56.0,1666.3004959999998
1159,38.950957618871165,-1.1224361610853844,37.06894413599214,-0.9861759142471608,56.0,1666.3004959999998
1160,38.98456500249401,-0.818444816178965,37.13615890323783,-0.23272145264592473,55.0,1636.54513
1161,39.018172386116845,-0.38472074220263813,37.169766286860664,0.49715158070369314,55.0,1636.54513
1162,39.05177976973968,0.02952723461572797,37.2033736704835,1.1792833219934464,55.0,1636.54513
1163,39.085387153362525,0.3312434852595047,37.236981054106344,1.5694983908522044,55.0,1636.54513
1164,39.11899453698536,0.5174888346253822,37.84191395931745,1.8475029524709785,38.0,1130.703908
1165,39.152601920608205,0.6391147962180952,37.875521342940296,1.6012662967669875,38.0,1130.703908
1166,39.18620930423104,0.7303123121012154,37.875521342940296,1.6012662967669875,39.0,1160.459274
1167,39.219816687853886,0.7658571533258494,37.90912872656314,1.0118611030227702,39.0,1160.459274
1168,39.25342407147672,0.6812865115450911,37.942736110185976,0.3225687159779845,39.0,1160.459274
1169,39.287031455099566,0.4346842663853078,37.97634349380882,-0.23034344163087445,39.0,1160.459274
1170,39.3206388387224,0.053856433339497474,38.009950877431656,-0.5208144201641524,39.0,1160.459274
1171,39.35424622234524,-0.37036484907440526,38.04355826105449,-0.5735344778615634,39.0,1160.459274
1172,39.38785360596808,-0.7341402610630513,38.077165644677336,-0.5268713873092323,39.0,1160.459274
1173,39.42146098959092,-0.9677367183778512,38.85013546800265,-0.3614095885786854,17.0,505.84122199999996
1174,39.45506837321376,-1.0434788191370998,38.88374285162549,0.42718332717198865,17.0,505.84122199999996
1175,39.4886757568366,-0.9509995346093513,38.91735023524833,1.2119472055927776,17.0,505.84122199999996
1176,39.52228314045944,-0.6772627727651208,38.95095761887117,1.7137748926884628,17.0,505.84122199999996
1177,39.55589052408228,-0.21893753230409566,39.589497907705116,1.6066844272147232,-1.0,-29.755366
1178,39.589497907705116,0.3820186381911396,39.62310529132795,0.9486782840180711,-1.0,-29.755366
1179,39.62310529132796,1.0153801691832274,39.656712674950796,0.22702227452144347,-1.0,-29.755366
1180,39.656712674950796,1.522316998367856,39.69032005857363,-0.31849186249487654,-1.0,-29.755366
1181,39.69032005857364,1.7566044098244946,39.69032005857364,-0.31849186249499184,0.0,0.0
1182,39.72392744219648,1.654590876164127,39.72392744219648,-0.5683168067855726,0.0,0.0
1183,39.75753482581932,1.2712635509361436,39.79114220944216,-0.44154728757863654,-1.0,-29.755366
1184,39.79114220944216,0.7581549724726515,39.82474959306499,-0.4041637872143032,-1.0,-29.755366
1185,39.824749593065,0.2929307291427187,39.85835697668784,-0.564692014185359,-1.0,-29.755366
1186,39.85835697668784,-0.0019415922501071728,39.89196436031067,-0.9089040601078124,-1.0,-29.755366
1187,39.89196436031067,-0.10860572247849062,39.92557174393351,-1.2847790752492187,-1.0,-29.755366
1188,39.92557174393352,-0.10658222730253389,39.959179127556354,-1.4664628099961987,-1.0,-29.755366
1189,39.959179127556354,-0.11611057484744458,39.99278651117919,-1.2634800859625954,-1.0,-29.755366
1190,39.9927865111792,-0.2269926608888435,40.026393894802034,-0.6259626021980539,-1.0,-29.755366
1191,40.026393894802034,-0.452914197065098,40.093608662047714,1.2602816796457812,-2.0,-59.510732
1192,40.06000127842488,-0.7316004706386207,40.12721604567056,1.9198254021813517,-2.0,-59.510732
1193,40.093608662047714,-0.9639105223470216,40.160823429293394,2.0858334115546775,-2.0,-59.510732
1194,40.12721604567055,-1.0669710726076236,40.19443081291623,1.7455093557917927,-2.0,-59.510732
1195,40.160823429293394,-1.0120276657480707,39.62310529132796,0.948678284017932,16.0,476.085856
1196,40.19443081291623,-0.8274960718794636,39.656712674950796,0.22702227452144347,16.0,476.085856
1197,40.228038196539075,-0.5718334376096335,39.69032005857364,-0.31849186249499184,16.0,476.085856
1198,40.26164558016191,-0.3037320831327837,39.72392744219648,-0.5683168067855726,16.0,476.085856
1199,40.295252963784755,-0.07280700174215866,40.63132680001315,-1.2964220452223931,-10.0,-297.55366
1200,40.32886034740759,0.0756336432678144,40.42968249827611,-0.25951663303723593,-3.0,-89.266098
1201,40.362467731030435,0.10560939387503877,40.46328988189895,-0.3225859406884679,-3.0,-89.266098
1202,40.39607511465327,0.012164328131133021,40.46328988189895,-0.3225859406884679,-2.0,-59.510732
1203,40.42968249827611,-0.16091836781261065,40.49689726552179,-0.610907609637711,-2.0,-59.510732
