frame_idx,t_rppg,rppg_n,t_gt_pair,ppg_n_pair,lag_samples,lag_frames
0,0.0,-0.06237645975367372,-0.03389201036187211,-0.018461169541723412,1.0,29.505479
1,0.03389201036187211,0.03419063244231475,0.0,-0.018461169541723412,1.0,29.505479
2,0.06778402072374422,0.22010450682973107,0.03389201036187211,-0.22736306844817816,1.0,29.505479
3,0.10167603108561633,0.5248599390998966,0.06778402072374423,-0.22005086112499933,1.0,29.505479
4,0.13556804144748844,0.8995468735744033,0.10167603108561632,0.09652119423052233,1.0,29.505479
5,0.16946005180936055,1.2494330648922465,0.13556804144748844,0.6387234885730131,1.0,29.505479
6,0.20335206217123267,1.488412060201487,0.16946005180936055,1.1905992243957209,1.0,29.505479
7,0.23724407253310478,1.5766072912818698,0.20335206217123267,1.5195905449232752,1.0,29.505479
8,0.27113608289497687,1.5215618322613018,0.23724407253310476,1.4963368250469027,1.0,29.505479
9,0.305028093256849,1.3516526077418152,0.27113608289497687,1.1518996627790183,1.0,29.505479
10,0.3389201036187211,1.0876025429457543,0.305028093256849,0.6460725002999755,1.0,29.505479
11,0.3728121139805932,0.7358095834463579,0.3389201036187211,0.1729224253137174,1.0,29.505479
12,0.40670412434246533,0.3087568041147766,0.3728121139805932,-0.1387427839849627,1.0,29.505479
13,0.44059613470433745,-0.14535148214985077,0.40670412434246533,-0.2770340905071153,1.0,29.505479
14,0.47448814506620957,-0.5329905392759334,0.44059613470433745,-0.3299293414499085,1.0,29.505479
15,0.5083801554280817,-0.7433160033839523,0.47448814506620957,-0.4162196520735851,1.0,29.505479
16,0.5422721657899537,-0.7027507251609485,0.5083801554280817,-0.605034503218511,1.0,29.505479
17,0.5761641761518259,-0.42241140882090283,0.5422721657899539,-0.8666865014706941,1.0,29.505479
18,0.610056186513698,-0.0071822690590492054,0.5761641761518259,-1.080424128777869,1.0,29.505479
19,0.6439481968755701,0.37999650598437573,0.6100561865136981,-1.0966104313943232,1.0,29.505479
20,0.6778402072374422,0.5807048763682698,0.6439481968755701,-0.8229393399445835,1.0,29.505479
21,0.7117322175993144,0.5048698820219345,0.6778402072374423,-0.28884656888342997,1.0,29.505479
22,0.7456242279611864,0.1725934080637873,0.7117322175993144,0.35054608279381844,1.0,29.505479
23,0.7795162383230585,-0.28675797061533215,0.7456242279611864,0.8789874257311031,1.0,29.505479
24,0.8134082486849307,-0.6880867679908281,0.7795162383230586,1.1205421719361837,1.0,29.505479
25,0.8473002590468027,-0.8784446269826752,0.8134082486849307,1.0222519598502553,1.0,29.505479
26,0.8811922694086749,-0.8118707921130621,0.8473002590468028,0.6716821184756934,1.0,29.505479
27,0.915084279770547,-0.5648114064085247,0.8811922694086749,0.24132725329863128,1.0,29.505479
28,0.9489762901324191,-0.2852898007223185,0.9150842797705471,-0.1057645458897895,1.0,29.505479
29,0.9828683004942912,-0.11443489525454022,0.9489762901324191,-0.294895158343368,1.0,29.505479
30,1.0167603108561634,-0.12836118576222127,0.9828683004942913,-0.361362002814757,1.0,29.505479
31,1.0506523212180354,-0.31999354685080006,1.0167603108561634,-0.4075273229894718,1.0,29.505479
32,1.0845443315799075,-0.611066019599523,1.0506523212180354,-0.5236563398046022,1.0,29.505479
33,1.1184363419417795,-0.8796659037993586,1.0845443315799075,-0.7193296508165344,1.0,29.505479
34,1.1523283523036518,-0.9979196800185213,1.1184363419417798,-0.9055404992937495,1.0,29.505479
35,1.1862203626655239,-0.8763773194239851,1.1523283523036518,-0.9398697592040088,1.0,29.505479
36,1.220112373027396,-0.5025933698812711,1.1862203626655239,-0.711797675566,1.0,29.505479
37,1.254004383389268,0.045598493363153046,1.220112373027396,-0.2200718401557277,1.0,29.505479
38,1.2878963937511403,0.6249455642873522,1.2540043833892682,0.405579997556486,1.0,29.505479
39,1.3217884041130123,1.0837583117677527,1.2878963937511403,0.9565268256265486,1.0,29.505479
40,1.3556804144748844,1.3251060675492312,1.3217884041130123,1.2451130535430113,1.0,29.505479
41,1.3895724248367565,1.3420101966831541,1.3556804144748844,1.1956225309692976,1.0,29.505479
42,1.4234644351986288,1.202595603483374,1.3895724248367567,0.874314151422081,1.0,29.505479
43,1.4573564455605008,0.9936029302190424,1.4234644351986288,0.4441121086797792,1.0,29.505479
44,1.4912484559223729,0.7604625440223565,1.4573564455605008,0.07401355740228166,1.0,29.505479
45,1.525140466284245,0.48634034075910293,1.4912484559223729,-0.14376472839649462,1.0,29.505479
46,1.559032476646117,0.12398144682693316,1.525140466284245,-0.2252975275691583,1.0,29.505479
47,1.5929244870079893,-0.34552992539538785,1.5590324766461172,-0.26343086358479195,1.0,29.505479
48,1.6268164973698613,-0.8709098742112363,1.5929244870079893,-0.3559437560101011,1.0,29.505479
49,1.6607085077317334,-1.3332266192948166,1.6268164973698613,-0.5355163116524684,1.0,29.505479
50,1.6946005180936055,-1.5890208779311739,1.6607085077317334,-0.7405924277072704,1.0,29.505479
51,1.7284925284554777,-1.5308049820964014,1.6946005180936057,-0.8440871746520732,1.0,29.505479
52,1.7623845388173498,-1.1397570440042166,1.7284925284554777,-0.7262143127814725,1.0,29.505479
53,1.7962765491792219,-0.5089422901043773,1.7623845388173498,-0.35234303247801474,1.0,29.505479
54,1.830168559541094,0.17836939111858602,1.7962765491792219,0.1897281385843288,1.0,29.505479
55,1.864060569902966,0.7140399728864271,1.830168559541094,0.7193162137347443,1.0,29.505479
56,1.8979525802648383,0.948926823397618,1.8640605699029662,1.0473684927181393,1.0,29.505479
57,1.9318445906267103,0.855715619944542,1.8979525802648383,1.0694450269496782,1.0,29.505479
58,1.9657366009885824,0.5379360087485761,1.9318445906267103,0.8134912735499851,1.0,29.505479
59,1.9996286113504544,0.1779670810095484,1.9657366009885824,0.41582217205707434,1.0,29.505479
60,2.0335206217123267,-0.05201849544861112,1.9996286113504547,0.042253074822776904,1.0,29.505479
61,2.067412632074199,-0.0726895348545363,2.0335206217123267,-0.1978331999646656,1.0,29.505479
62,2.101304642436071,0.0678015209896719,2.067412632074199,-0.2966104760816204,1.0,29.505479
63,2.135196652797943,0.2272703134213661,2.101304642436071,-0.3312664119492742,1.0,29.505479
64,2.169088663159815,0.25727484824646857,2.135196652797943,-0.4003391678504752,1.0,29.505479
65,2.202980673521687,0.09824284361950697,2.169088663159815,-0.5517032736594675,1.0,29.505479
66,2.236872683883559,-0.17569584822004033,1.6268164973698611,-0.5355163116524673,18.0,531.098622
67,2.2707646942454316,-0.39380647120131823,1.6607085077317336,-0.7405924277072711,18.0,531.098622
68,2.3046567046073037,-0.3893698536468499,1.6946005180936057,-0.8440871746520732,18.0,531.098622
69,2.3385487149691757,-0.10415650882716043,1.7284925284554777,-0.7262143127814725,18.0,531.098622
70,2.3724407253310478,0.3672544681448489,1.7623845388173498,-0.35234303247801474,18.0,531.098622
71,2.40633273569292,0.8210898276554233,1.7962765491792219,0.1897281385843288,18.0,531.098622
72,2.440224746054792,1.0504757120179058,1.830168559541094,0.7193162137347443,18.0,531.098622
73,2.474116756416664,0.952501866544225,1.864060569902966,1.047368492718139,18.0,531.098622
74,2.508008766778536,0.5768615479789416,1.897952580264838,1.069445026949678,18.0,531.098622
75,2.5419007771404085,0.0927852505788025,1.9318445906267105,0.8134912735499825,18.0,531.098622
76,2.5757927875022806,-0.30247685597614427,1.9657366009885826,0.4158221720570719,18.0,531.098622
77,2.6096847978641526,-0.48075322404977183,1.9996286113504547,0.042253074822776904,18.0,531.098622
78,2.6435768082260247,-0.4350834609124016,2.0335206217123267,-0.1978331999646656,18.0,531.098622
79,2.6774688185878968,-0.26585421289654093,2.067412632074199,-0.2966104760816204,18.0,531.098622
80,2.711360828949769,-0.11672803736246173,2.101304642436071,-0.3312664119492742,18.0,531.098622
81,2.745252839311641,-0.09784244409718322,2.135196652797943,-0.4003391678504752,18.0,531.098622
82,2.779144849673513,-0.2314505262469157,2.169088663159815,-0.5517032736594675,18.0,531.098622
83,2.813036860035385,-0.44025043450363877,2.745252839311641,-0.505186081867625,2.0,59.010958
84,2.8469288703972575,-0.5850396034378533,2.7791448496735134,-0.7121315354098482,2.0,59.010958
85,2.8808208807591296,-0.5422438484163653,2.8130368600353854,-0.7923434104752793,2.0,59.010958
86,2.9147128911210016,-0.28608953410605303,2.8469288703972575,-0.6382509895286548,2.0,59.010958
87,2.9486049014828737,0.0779732949437691,2.8808208807591296,-0.23924549427930508,2.0,59.010958
88,2.9824969118447457,0.3629963279859408,2.9147128911210016,0.29714030739853947,2.0,59.010958
89,3.016388922206618,0.4119845067765877,2.9486049014828737,0.7880696857935967,2.0,59.010958
90,3.05028093256849,0.19826653946655232,2.9824969118447457,1.062579591424812,2.0,59.010958
91,3.084172942930362,-0.15819869486982702,3.016388922206618,1.0448948758543086,2.0,59.010958
92,3.118064953292234,-0.47258718648554776,3.05028093256849,0.7859098000096394,2.0,59.010958
93,3.1519569636541065,-0.6155379636672976,3.0841729429303624,0.42581464577008626,2.0,59.010958
94,3.1858489740159786,-0.5865938522682902,3.1180649532922344,0.11224317311352477,2.0,59.010958
95,3.2197409843778506,-0.4974295756762315,3.1519569636541065,-0.07692952754437885,2.0,59.010958
96,3.2536329947397227,-0.4894881754849546,3.1858489740159786,-0.16284907848231944,2.0,59.010958
97,3.2875250051015947,-0.6448202675536916,3.2197409843778506,-0.2337502376000655,2.0,59.010958
98,3.321417015463467,-0.9338266299200089,3.2536329947397227,-0.3737755156719121,2.0,59.010958
99,3.355309025825339,-1.2135100899146805,3.2875250051015947,-0.5958793166772888,2.0,59.010958
100,3.389201036187211,-1.276393560197582,3.321417015463467,-0.8196109447071612,2.0,59.010958
101,3.423093046549083,-0.9433123482663154,3.355309025825339,-0.9096808472241702,2.0,59.010958
102,3.4569850569109555,-0.16843518012725728,3.3892010361872114,-0.7560710307462014,2.0,59.010958
103,3.4908770672728275,0.9034893124593966,3.4230930465490834,-0.3495409697137439,2.0,59.010958
104,3.5247690776346996,1.9756386288644847,3.4569850569109555,0.1950943108883928,2.0,59.010958
105,3.5586610879965717,2.7223492712270105,3.4908770672728275,0.686755786311096,2.0,59.010958
106,3.5925530983584437,2.929753585949724,3.5247690776346996,0.9520296432975376,2.0,59.010958
107,3.626445108720316,2.579718552255817,3.5586610879965717,0.9203596707463871,2.0,59.010958
108,3.660337119082188,1.8426096562099679,3.5925530983584437,0.6509582371832185,2.0,59.010958
109,3.69422912944406,0.9939543897747596,3.084172942930362,0.42581464577009037,18.0,531.098622
110,3.728121139805932,0.2982851816596108,3.118064953292234,0.11224317311352726,18.0,531.098622
111,3.7620131501678045,-0.09602305015854114,3.1519569636541065,-0.07692952754437885,18.0,531.098622
112,3.7959051605296765,-0.21742042485471566,3.1858489740159786,-0.16284907848231944,18.0,531.098622
113,3.8297971708915486,-0.25883732718433305,3.2197409843778506,-0.2337502376000655,18.0,531.098622
114,3.8636891812534206,-0.4759140412503365,3.2536329947397227,-0.3737755156719121,18.0,531.098622
115,3.8975811916152927,-1.0241978957167026,3.2875250051015947,-0.5958793166772888,18.0,531.098622
116,3.9314732019771648,-1.824927565629839,3.2875250051015947,-0.5958793166772888,19.0,560.604101
117,3.965365212339037,-2.562204615879026,3.321417015463467,-0.8196109447071612,19.0,560.604101
118,3.999257222700909,-2.8402049637730555,3.355309025825339,-0.9096808472241702,19.0,560.604101
119,4.033149233062781,-2.413411696933391,3.3892010361872114,-0.7560710307462014,19.0,560.604101
120,4.0670412434246535,-1.341780031703286,3.4230930465490834,-0.3495409697137439,19.0,560.604101
121,4.1009332537865255,0.029697347725980875,3.4569850569109555,0.1950943108883928,19.0,560.604101
122,4.134825264148398,1.2494654867811255,3.4908770672728275,0.686755786311096,19.0,560.604101
123,4.16871727451027,1.9797303811457196,3.5247690776346996,0.9520296432975376,19.0,560.604101
124,4.202609284872142,2.128082582212017,3.5586610879965717,0.9203596707463871,19.0,560.604101
125,4.236501295234014,1.829242260581555,3.5925530983584437,0.6509582371832185,19.0,560.604101
126,4.270393305595886,1.3143887884457008,3.626445108720316,0.2887978717599218,19.0,560.604101
127,4.304285315957758,0.7668446319162893,3.660337119082188,-0.02021612554476519,19.0,560.604101
128,4.33817732631963,0.2533189852864188,3.69422912944406,-0.2035609612201894,19.0,560.604101
129,4.372069336681502,-0.24413698370550713,3.728121139805932,-0.2852012150229479,19.0,560.604101
130,4.405961347043374,-0.7411599870251818,3.762013150167804,-0.34931129357585206,19.0,560.604101
131,4.439853357405246,-1.185227918871672,3.795905160529676,-0.4703564486487788,19.0,560.604101
132,4.473745367767118,-1.4598191012249087,3.829797170891548,-0.652517632747752,19.0,560.604101
133,4.507637378128991,-1.4489912893864108,3.863689181253421,-0.8147759461910394,19.0,560.604101
134,4.541529388490863,-1.1117109325734578,3.897581191615293,-0.8321741392177971,19.0,560.604101
135,4.575421398852735,-0.5184137600903169,3.931473201977165,-0.6118362902034945,19.0,560.604101
136,4.609313409214607,0.1652744021594469,3.9653652123390373,-0.16029642151511778,19.0,560.604101
137,4.643205419576479,0.7344802074989569,3.9992572227009093,0.4001391926542757,19.0,560.604101
138,4.677097429938351,1.0189011099347416,4.033149233062781,0.8809869060890458,19.0,560.604101
139,4.7109894403002235,0.952456413097104,4.0670412434246535,1.1183479978439395,19.0,560.604101
140,4.7448814506620955,0.6114462437575806,4.1009332537865255,1.053090059173026,19.0,560.604101
141,4.778773461023968,0.1911539777808063,4.134825264148398,0.7540383315901545,19.0,560.604101
142,4.81266547138584,-0.08803403767766355,4.16871727451027,0.37262518517800264,19.0,560.604101
143,4.846557481747712,-0.10554567489833248,4.202609284872142,0.058167105539813406,19.0,560.604101
144,4.880449492109584,0.0821929684548547,4.236501295234014,-0.11649507717392091,19.0,560.604101
145,4.914341502471456,0.27369160887764843,4.270393305595886,-0.1790183584113102,19.0,560.604101
146,4.948233512833328,0.2512960125019283,4.304285315957758,-0.22216382606603774,19.0,560.604101
147,4.9821255231952,-0.07512674044630537,4.33817732631963,-0.33285491847448945,19.0,560.604101
148,5.016017533557072,-0.6012510188975194,4.372069336681502,-0.5275500409668089,19.0,560.604101
149,5.049909543918944,-1.0777824071536442,4.948233512833328,-0.7904673402633595,3.0,88.516437
150,5.083801554280817,-1.245713974954876,4.982125523195201,-0.9514678835963828,3.0,88.516437
151,5.117693564642689,-0.9797267611758183,5.016017533557073,-0.9186416176692068,3.0,88.516437
152,5.151585575004561,-0.359061550058994,5.049909543918945,-0.6202962708827606,3.0,88.516437
153,5.185477585366433,0.3740107815697407,5.083801554280817,-0.10296765413558061,3.0,88.516437
154,5.219369595728305,0.9440617344884247,5.117693564642689,0.475763167133747,3.0,88.516437
155,5.253261606090177,1.1853857037509437,5.151585575004561,0.917904863865443,3.0,88.516437
156,5.287153616452049,1.1150551689529657,5.185477585366433,1.0815914172269903,3.0,88.516437
157,5.3210456268139215,0.8960409133871512,5.219369595728305,0.9478594492688102,3.0,88.516437
158,5.3549376371757935,0.71837233797496,5.253261606090177,0.6193601034965965,3.0,88.516437
159,5.388829647537666,0.6759393077417657,5.287153616452049,0.25461286220734936,3.0,88.516437
160,5.422721657899538,0.7150030521425221,5.3210456268139215,-0.02025577682384164,3.0,88.516437
161,5.45661366826141,0.6812611292163293,5.3549376371757935,-0.16969297970020988,3.0,88.516437
162,5.490505678623282,0.4301750705184037,5.388829647537666,-0.24566202366278228,3.0,88.516437
163,5.524397688985154,-0.07050048820582429,5.422721657899538,-0.33048302127825957,3.0,88.516437
164,5.558289699347026,-0.7072941072889649,5.45661366826141,-0.46464678592845066,3.0,88.516437
165,5.592181709708898,-1.2736543423558044,5.490505678623282,-0.606577615910488,3.0,88.516437
166,5.62607372007077,-1.576361425629421,5.524397688985154,-0.6513877149934951,3.0,88.516437
167,5.659965730432642,-1.5343228747948148,5.558289699347026,-0.4990281376916847,3.0,88.516437
168,5.693857740794515,-1.2119028120626025,5.592181709708899,-0.12974457577415177,3.0,88.516437
169,5.727749751156387,-0.7681598841385313,5.626073720070771,0.3630510427080058,3.0,88.516437
170,5.761641761518259,-0.359147786003143,5.659965730432643,0.8078897161741088,3.0,88.516437
171,5.795533771880131,-0.06025875303599989,5.693857740794515,1.0405639293519118,3.0,88.516437
172,5.829425782242003,0.14584966742359068,5.727749751156387,0.9887071664587401,3.0,88.516437
173,5.863317792603875,0.3205959747775549,5.761641761518259,0.7046934302123641,3.0,88.516437
174,5.897209802965747,0.5023370102695477,5.795533771880131,0.3287493036767544,3.0,88.516437
175,5.931101813327619,0.6673782020037319,6.066669854775108,-1.0276723299831572,-4.0,-118.021916
176,5.9649938236894915,0.742368774927,6.371697948031957,-0.002263692126351598,-12.0,-354.065748
177,5.9988858340513636,0.6558703940357675,5.897209802965747,-0.2770509396707523,3.0,88.516437
178,6.032777844413236,0.3915435263821102,5.931101813327619,-0.3564606487870511,3.0,88.516437
179,6.066669854775108,0.009106459026964706,5.9649938236894915,-0.5082329520475329,3.0,88.516437
180,6.10056186513698,-0.3741320761455894,6.507265989479445,-0.40152704256307387,-12.0,-354.065748
181,6.134453875498852,-0.6260019124187396,6.541157999841317,-0.5154756283730871,-12.0,-354.065748
182,6.168345885860724,-0.6473201286419777,6.5750500102031895,-0.5841113124579252,-12.0,-354.065748
183,6.202237896222596,-0.40965406282560995,6.6089420205650615,-0.5080085857387521,-12.0,-354.065748
184,6.236129906584468,0.030288647321517426,6.371697948031956,-0.0022636921263431975,-4.0,-118.021916
185,6.27002191694634,0.5480683985467968,6.405589958393828,-0.18977999384149222,-4.0,-118.021916
186,6.303913927308213,0.9959128131691031,6.439481968755701,-0.26895657369573317,-4.0,-118.021916
187,6.337805937670085,1.2545514841535281,6.473373979117573,-0.3181292353224828,-4.0,-118.021916
188,6.371697948031957,1.2689173640547053,6.270021916946341,0.9786252238603281,3.0,88.516437
189,6.405589958393829,1.0545174576569716,6.303913927308213,0.6935057937860001,3.0,88.516437
190,6.439481968755701,0.6773586485430536,6.337805937670085,0.3164888388353337,3.0,88.516437
191,6.473373979117573,0.22079325608416137,6.371697948031957,-0.002263692126351598,3.0,88.516437
192,6.507265989479445,-0.2457149994290629,6.405589958393829,-0.18977999384149713,3.0,88.516437
193,6.541157999841317,-0.6842703270032943,6.439481968755701,-0.26895657369573317,3.0,88.516437
194,6.5750500102031895,-1.0857667486844291,6.473373979117573,-0.3181292353224828,3.0,88.516437
195,6.6089420205650615,-1.446014127851674,6.507265989479445,-0.40152704256307387,3.0,88.516437
196,6.642834030926934,-1.7310907688777881,6.541157999841317,-0.5154756283730871,3.0,88.516437
197,6.676726041288806,-1.8564978500280436,6.5750500102031895,-0.5841113124579252,3.0,88.516437
198,6.710618051650678,-1.7077243999164082,6.6089420205650615,-0.5080085857387521,3.0,88.516437
199,6.74451006201255,-1.2062454672149912,6.642834030926934,-0.23613447234042093,3.0,88.516437
200,6.778402072374422,-0.3850161356436073,6.676726041288806,0.18496577714234114,3.0,88.516437
201,6.812294082736294,0.5831502953743826,6.710618051650678,0.6192305159023216,3.0,88.516437
202,6.846186093098166,1.4370188916366224,6.74451006201255,0.9057676356462158,3.0,88.516437
203,6.880078103460039,1.93702706383405,6.778402072374423,0.942437523759009,3.0,88.516437
204,6.913970113821911,1.971311680507992,6.812294082736295,0.7370738093127313,3.0,88.516437
205,6.947862124183783,1.5959217876703695,6.846186093098167,0.39544464432400644,3.0,88.516437
206,6.981754134545655,0.9876469585789477,6.880078103460039,0.055482466349526506,3.0,88.516437
207,7.015646144907527,0.3414771431536708,6.913970113821911,-0.18965202001881665,3.0,88.516437
208,7.049538155269399,-0.22008192436721924,6.947862124183783,-0.3322622651945126,3.0,88.516437
209,7.083430165631271,-0.6678350199526285,7.490134289973737,-0.3538197549536425,-12.0,-354.065748
210,7.117322175993143,-1.012384003136779,7.524026300335609,-0.4322896937257067,-12.0,-354.065748
211,7.151214186355015,-1.2311338593763361,7.557918310697481,-0.5467809926581817,-12.0,-354.065748
212,7.185106196716887,-1.245180937120764,7.591810321059353,-0.6362640028862824,-12.0,-354.065748
213,7.2189982070787595,-0.9703674332437857,7.625702331421225,-0.5942008553999684,-12.0,-354.065748
214,7.252890217440632,-0.40124701993727335,7.659594341783097,-0.3473514807648455,-12.0,-354.065748
215,7.286782227802504,0.34239523998282245,7.693486352144969,0.07726315546969822,-12.0,-354.065748
216,7.320674238164376,1.0477944296579507,7.727378362506841,0.5456037312662654,-12.0,-354.065748
217,7.354566248526248,1.502475152631947,7.761270372868713,0.8796626416481395,-12.0,-354.065748
218,7.38845825888812,1.5890373567572198,7.795162383230585,0.9524134085941345,-12.0,-354.065748
219,7.422350269249992,1.3253509980414888,6.812294082736294,0.7370738093127402,18.0,531.098622
220,7.456242279611864,0.8337896306857082,6.846186093098166,0.3954446443240153,18.0,531.098622
221,7.490134289973737,0.26697376210057916,6.880078103460039,0.055482466349526506,18.0,531.098622
222,7.524026300335609,-0.26193579604059597,6.913970113821911,-0.18965202001881665,18.0,531.098622
223,7.557918310697481,-0.706010891318951,6.947862124183783,-0.3322622651945126,18.0,531.098622
224,7.591810321059353,-1.0606083834580604,7.998514445401819,-0.5109538750701237,-12.0,-354.065748
225,7.625702331421225,-1.3150354275260974,7.015646144907527,-0.5527538216150907,18.0,531.098622
226,7.659594341783097,-1.4234241571494057,7.049538155269399,-0.7010820933595954,18.0,531.098622
227,7.693486352144969,-1.323911096239284,7.083430165631271,-0.8044512090533877,18.0,531.098622
228,7.727378362506841,-0.9938577590151895,7.117322175993143,-0.7526420610984447,18.0,531.098622
229,7.761270372868713,-0.492607506609909,7.659594341783097,-0.3473514807648455,3.0,88.516437
230,7.795162383230585,0.05099305310990652,7.693486352144969,0.07726315546969822,3.0,88.516437
231,7.8290543935924575,0.5013818598531057,7.727378362506841,0.5456037312662654,3.0,88.516437
232,7.8629464039543295,0.7797644798727916,7.761270372868713,0.8796626416481395,3.0,88.516437
233,7.896838414316202,0.8806049541462418,7.795162383230585,0.9524134085941345,3.0,88.516437
234,7.930730424678074,0.8372404030088394,7.8290543935924575,0.7543075711606916,3.0,88.516437
235,7.964622435039946,0.6743763057863652,7.8629464039543295,0.3901701793627129,3.0,88.516437
236,7.998514445401818,0.3896707109050126,7.896838414316202,0.011834508395520126,3.0,88.516437
237,8.03240645576369,-0.02298004999292515,7.930730424678074,-0.26769104707038943,3.0,88.516437
238,8.066298466125563,-0.5302338544359099,7.964622435039947,-0.42451006526876156,3.0,88.516437
239,8.100190476487434,-1.0312765439496745,7.998514445401818,-0.5109538750701215,3.0,88.516437
240,8.134082486849307,-1.3690205416239334,8.03240645576369,-0.5937600354689344,3.0,88.516437
241,8.167974497211178,-1.3828225318693776,8.066298466125561,-0.6884270700395108,3.0,88.516437
242,8.201866507573051,-0.9838790395498516,8.100190476487434,-0.736303959837812,3.0,88.516437
243,8.235758517934922,-0.21806213096892627,8.134082486849305,-0.6421906050955868,3.0,88.516437
244,8.269650528296795,0.7232064180558067,8.167974497211178,-0.3486604751089438,3.0,88.516437
245,8.303542538658666,1.5645176163880679,8.20186650757305,0.10433258622404495,3.0,88.516437
246,8.33743454902054,2.0606089417968083,8.473002590468028,-0.2774041821261159,-4.0,-118.021916
247,8.371326559382412,2.104717940324621,8.269650528296795,0.9076194125223067,3.0,88.516437
248,8.405218569744283,1.7668849983401929,8.303542538658666,0.9779303650460417,3.0,88.516437
249,8.439110580106156,1.2362277002048656,8.33743454902054,0.7947891530748848,3.0,88.516437
250,8.473002590468028,0.7022201925542858,8.37132655938241,0.46494017367822166,3.0,88.516437
251,8.5068946008299,0.2513432322747145,8.405218569744283,0.127649156430712,3.0,88.516437
252,8.540786611191772,-0.15451139191426874,8.439110580106155,-0.12353434019283527,3.0,88.516437
253,8.574678621553645,-0.6080406177482821,8.710246663001133,0.2522234043997903,-4.0,-118.021916
254,8.608570631915516,-1.1488957774864914,8.744138673363004,0.6261641115865761,-4.0,-118.021916
255,8.642462642277389,-1.6977315498457477,8.778030683724877,0.8224704375207299,-4.0,-118.021916
256,8.67635465263926,-2.0803101526311325,8.574678621553643,-0.576160173050007,3.0,88.516437
257,8.710246663001133,-2.125754022341749,8.608570631915516,-0.5948861356989917,3.0,88.516437
258,8.744138673363004,-1.770722092592334,8.642462642277387,-0.463021769989965,3.0,88.516437
259,8.778030683724877,-1.0983403968105288,8.67635465263926,-0.15765023520498195,3.0,88.516437
260,8.811922694086748,-0.29099697557953264,9.184734808067342,-0.14153991867252927,-11.0,-324.560269
261,8.845814704448621,0.4607757598813922,9.218626818429215,0.32339376838330786,-11.0,-324.560269
262,8.879706714810492,1.0291063901054178,9.252518828791086,0.731294285899514,-11.0,-324.560269
263,8.913598725172365,1.3660053775813878,8.811922694086748,0.774106709272383,3.0,88.516437
264,8.947490735534236,1.479183518872051,8.84581470444862,0.5216224953913027,3.0,88.516437
265,8.98138274589611,1.3987147457753162,8.879706714810492,0.18312557430553533,3.0,88.516437
266,9.015274756257982,1.1568420380061049,8.913598725172365,-0.11711703862833943,3.0,88.516437
267,9.049166766619853,0.7839991867778732,8.947490735534236,-0.3145484323257777,3.0,88.516437
268,9.083058776981726,0.3140881244962514,8.98138274589611,-0.42414410351684995,3.0,88.516437
269,9.116950787343598,-0.20655332208308488,9.489762901324191,-0.4424350766353954,-11.0,-324.560269
270,9.15084279770547,-0.7086943717730674,9.523654911686064,-0.5321871529102097,-11.0,-324.560269
271,9.184734808067342,-1.0943000642319953,9.083058776981725,-0.6852995459846449,3.0,88.516437
272,9.218626818429215,-1.2496890712388369,9.116950787343598,-0.6813913035257096,3.0,88.516437
273,9.252518828791086,-1.0893969011917939,9.150842797705469,-0.5052799929630033,3.0,88.516437
274,9.286410839152959,-0.617455957829746,9.659222953133552,-0.25236939633330324,-11.0,-324.560269
275,9.32030284951483,0.03652222893190833,9.693114963495423,0.16539612429233777,-11.0,-324.560269
276,9.354194859876703,0.6477679049438135,9.727006973857296,0.5984090448093361,-11.0,-324.560269
277,9.388086870238574,0.9920960581681175,9.760898984219168,0.8898461997998481,-11.0,-324.560269
278,9.421978880600447,0.955062489235398,9.286410839152959,0.9322901279729282,4.0,118.021916
279,9.455870890962318,0.5871666059238677,9.32030284951483,0.8647368161136519,4.0,118.021916
280,9.489762901324191,0.06938098411898123,9.354194859876703,0.5832457692694846,4.0,118.021916
281,9.523654911686062,-0.3906081656932833,9.388086870238574,0.2185485896044317,4.0,118.021916
282,9.557546922047935,-0.6660476553860509,9.421978880600447,-0.1013802061057123,4.0,118.021916
283,9.591438932409808,-0.7546699447606267,9.693114963495425,0.16539612429236047,-3.0,-88.516437
284,9.62533094277168,-0.7365446958167461,9.727006973857296,0.5984090448093361,-3.0,-88.516437
285,9.659222953133552,-0.6866828138486692,9.76089898421917,0.8898461997998505,-3.0,-88.516437
286,9.693114963495423,-0.6112707171182927,10.065927077476017,-0.7229118072990929,-11.0,-324.560269
287,9.727006973857296,-0.45181382285253857,10.09981908783789,-0.7091463008934089,-11.0,-324.560269
288,9.760898984219168,-0.148135064204589,10.133711098199761,-0.5236067466947418,-11.0,-324.560269
289,9.79479099458104,0.2910495659525142,10.167603108561634,-0.1560605313653579,-11.0,-324.560269
290,9.828683004942912,0.7661813570031211,10.201495118923505,0.3082065812600455,-11.0,-324.560269
291,9.862575015304785,1.134271143621022,10.235387129285378,0.7168952092953705,-11.0,-324.560269
292,9.896467025666656,1.2931410682423499,10.26927913964725,0.9263615128872313,-11.0,-324.560269
293,9.930359036028529,1.238984031779756,10.303171150009122,0.8762772611858111,-11.0,-324.560269
294,9.9642510463904,1.052160629695895,10.337063160370993,0.6151717241707614,-11.0,-324.560269
295,9.998143056752273,0.8216733431518819,9.862575015304785,0.39879608352571144,4.0,118.021916
296,10.032035067114144,0.5686548849244152,10.642091253627843,-0.34095331020230335,-18.0,-531.098622
297,10.065927077476017,0.23375492670725032,10.675983263989714,0.07561561613841397,-18.0,-531.098622
298,10.099819087837888,-0.25472257341776744,10.709875274351585,0.5179558675095473,-18.0,-531.098622
299,10.133711098199761,-0.8817769377311857,10.74376728471346,0.8385529728884267,-18.0,-531.098622
300,10.167603108561634,-1.497501657458748,10.032035067114146,-0.6378095449118468,4.0,118.021916
301,10.201495118923505,-1.868669011412539,10.065927077476017,-0.7229118072990929,4.0,118.021916
302,10.235387129285378,-1.8047625638076472,10.09981908783789,-0.7091463008934089,4.0,118.021916
303,10.26927913964725,-1.2763993694464368,10.133711098199761,-0.5236067466947418,4.0,118.021916
304,10.303171150009122,-0.44780088794765827,10.40484718109474,-0.062127103479733214,-3.0,-88.516437
305,10.337063160370993,0.39822263174958683,11.184363419417796,0.2872046280342195,-25.0,-737.636975
306,10.370955170732866,0.9971700445259961,11.218255429779669,0.6783879814889178,-25.0,-737.636975
307,10.404847181094738,1.2209387777626737,11.25214744014154,0.8743781470096155,-25.0,-737.636975
308,10.43873919145661,1.1117068435184232,10.303171150009122,0.8762772611858111,4.0,118.021916
309,10.472631201818482,0.8200664578166185,10.337063160370993,0.6151717241707614,4.0,118.021916
310,10.506523212180355,0.49532191050884583,10.574307232904099,-0.7155046997947292,-2.0,-59.010958
311,10.540415222542226,0.20399869801901035,10.60819924326597,-0.6160560426373228,-2.0,-59.010958
312,10.574307232904099,-0.07187984626309363,10.642091253627843,-0.34095331020230335,-2.0,-59.010958
313,10.60819924326597,-0.36795755114317247,10.675983263989714,0.07561561613841397,-2.0,-59.010958
314,10.642091253627843,-0.6653990606017456,10.709875274351587,0.5179558675095705,-2.0,-59.010958
315,10.675983263989714,-0.8750793448217454,10.743767284713458,0.8385529728884218,-2.0,-59.010958
316,10.709875274351587,-0.8898348369130108,10.777659295075331,0.9324508804465976,-2.0,-59.010958
317,10.743767284713458,-0.6631051530860358,10.811551305437202,0.7886677877217603,-2.0,-59.010958
318,10.777659295075331,-0.25477520992259395,10.845443315799075,0.4867506611776301,-2.0,-59.010958
319,10.811551305437204,0.19032354958217665,10.879335326160948,0.14395919888845995,-2.0,-59.010958
320,10.845443315799075,0.5195240655233734,10.91322733652282,-0.14971717697987985,-2.0,-59.010958
321,10.879335326160948,0.6552148909555268,10.947119346884692,-0.3667084454596496,-2.0,-59.010958
322,10.91322733652282,0.6285299493341445,10.981011357246564,-0.5284057910738341,-2.0,-59.010958
323,10.947119346884692,0.5420636763183393,11.014903367608436,-0.6584771350747219,-2.0,-59.010958
324,10.981011357246564,0.4886354650769378,11.048795377970308,-0.7408386927230645,-2.0,-59.010958
325,11.014903367608436,0.48179134564063886,11.08268738833218,-0.7164304841184782,-2.0,-59.010958
326,11.048795377970308,0.44449793057671005,11.116579398694052,-0.5248198864766046,-2.0,-59.010958
327,11.08268738833218,0.26532187471253155,11.150471409055925,-0.1623826984915149,-2.0,-59.010958
328,11.116579398694052,-0.11148930188461073,11.184363419417796,0.2872046280342195,-2.0,-59.010958
329,11.150471409055925,-0.620856723510708,11.218255429779669,0.6783879814889178,-2.0,-59.010958
330,11.184363419417796,-1.0845712994741408,11.25214744014154,0.8743781470096155,-2.0,-59.010958
331,11.218255429779669,-1.2951501331859294,11.286039450503413,0.8186207767059082,-2.0,-59.010958
332,11.25214744014154,-1.1300734971833943,11.319931460865284,0.5602813830228579,-2.0,-59.010958
333,11.286039450503413,-0.6298021032101525,11.116579398694052,-0.5248198864766046,5.0,147.527395
334,11.319931460865284,0.008723814010334304,11.150471409055923,-0.16238269849153392,5.0,147.527395
335,11.353823471227157,0.5255703160308067,11.184363419417796,0.2872046280342195,5.0,147.527395
336,11.38771548158903,0.7307102405022617,11.218255429779669,0.6783879814889178,5.0,147.527395
337,11.421607491950901,0.6020101002849474,11.25214744014154,0.8743781470096155,5.0,147.527395
338,11.455499502312774,0.28936500153965816,11.286039450503413,0.8186207767059082,5.0,147.527395
339,11.489391512674645,0.019015733681509547,11.319931460865284,0.5602813830228579,5.0,147.527395
340,11.523283523036518,-0.04574587068132638,11.353823471227157,0.21824811574496927,5.0,147.527395
341,11.55717553339839,0.10109124982616242,11.387715481589028,-0.09016348708586597,5.0,147.527395
342,11.591067543760262,0.32154796543363995,11.421607491950901,-0.3076452033113118,5.0,147.527395
343,11.624959554122134,0.4426120050380076,11.455499502312772,-0.4462066517278964,5.0,147.527395
344,11.658851564484007,0.3793666735038042,11.72663558520775,1.0216825934679108,-2.0,-59.010958
345,11.692743574845878,0.18345138481948065,11.760527595569622,1.0529890683055003,-2.0,-59.010958
346,11.72663558520775,-0.010410327341624387,11.55717553339839,-0.6333632397690143,5.0,147.527395
347,11.760527595569622,-0.08851380116712543,11.59106754376026,-0.5044547136400607,5.0,147.527395
348,11.794419605931495,-0.030275794369545358,11.624959554122134,-0.19303989922425907,5.0,147.527395
349,11.828311616293366,0.09806028404907582,11.89609563701711,-0.41232695734957714,-2.0,-59.010958
350,11.862203626655239,0.20816316404013435,11.929987647378983,-0.714896533484586,-2.0,-59.010958
351,11.89609563701711,0.25302681539553423,11.963879657740854,-0.9654106619440792,-2.0,-59.010958
352,11.929987647378983,0.24226999022294154,11.997771668102727,-1.1522051057574956,-2.0,-59.010958
353,11.963879657740856,0.20856828064439578,12.0316636784646,-1.190074251745968,-2.0,-59.010958
354,11.997771668102727,0.16199459053487786,12.065555688826471,-0.9584295901406711,-2.0,-59.010958
355,12.0316636784646,0.07178492881718028,12.099447699188344,-0.3984283928730807,-2.0,-59.010958
356,12.065555688826471,-0.11092397954250482,12.133339709550215,0.4021991287136655,-2.0,-59.010958
357,12.099447699188344,-0.40625663353757135,12.167231719912088,1.2092399868454653,-2.0,-59.010958
358,12.133339709550215,-0.7677458574025804,12.20112373027396,1.7421299948496303,-2.0,-59.010958
359,12.167231719912088,-1.0828976077770467,12.235015740635832,1.8146393554469973,-2.0,-59.010958
360,12.20112373027396,-1.219792714047815,12.268907750997704,1.4242819580581658,-2.0,-59.010958
361,12.235015740635832,-1.096415415848782,12.302799761359577,0.7349135070715972,-2.0,-59.010958
362,12.268907750997704,-0.7292805441372342,12.336691771721448,-0.02748182414411483,-2.0,-59.010958
363,12.302799761359577,-0.22817344261420755,12.607827854616426,0.3337953418717158,-9.0,-265.549311
364,12.336691771721448,0.2593330690409026,12.641719864978297,1.1462765884485429,-9.0,-265.549311
365,12.37058378208332,0.6164708515001931,12.67561187534017,1.6644666989414474,-9.0,-265.549311
366,12.404475792445192,0.7982696850931231,12.709503885702041,1.7460934178856715,-9.0,-265.549311
367,12.438367802807065,0.8274398076739286,12.743395896063914,1.4180988182224925,-9.0,-265.549311
368,12.472259813168936,0.7559150012161061,12.777287906425785,0.8425333318500137,-9.0,-265.549311
369,12.506151823530809,0.6205186418982024,12.811179916787658,0.21377048955130215,-9.0,-265.549311
370,12.54004383389268,0.4227358955912993,12.84507192714953,-0.33816207532486714,-9.0,-265.549311
371,12.573935844254553,0.14658932610886363,13.116208010044506,1.1800786829712726,-16.0,-472.087664
372,12.607827854616426,-0.19836991564981848,13.150100020406379,1.5728294598061614,-16.0,-472.087664
373,12.641719864978297,-0.5430774756270332,13.18399203076825,1.5234050151059102,-16.0,-472.087664
374,12.67561187534017,-0.7664865064548889,13.217884041130123,1.0951877726057506,-16.0,-472.087664
375,12.709503885702041,-0.7502487923686503,13.251776051491994,0.4802429276705229,-16.0,-472.087664
376,12.743395896063914,-0.45105175145715676,13.285668061853867,-0.11813836517143475,-16.0,-472.087664
377,12.777287906425785,0.05645971328902629,13.319560072215738,-0.5851609580896219,-16.0,-472.087664
378,12.811179916787658,0.5989067838460252,13.590696155110717,1.0934490638555696,-23.0,-678.626017
379,12.84507192714953,0.980403688793968,13.624588165472588,1.425158322795882,-23.0,-678.626017
380,12.878963937511402,1.0737312342308665,13.65848017583446,1.3222752126377688,-23.0,-678.626017
381,12.912855947873274,0.8729398072890209,13.692372186196332,0.8584463691431369,-23.0,-678.626017
382,12.946747958235147,0.4778459236278552,13.726264196558205,0.23445695910659886,-23.0,-678.626017
383,12.980639968597018,0.026992737601093067,13.963508269091308,-0.3442882993451896,-29.0,-855.658891
384,13.01453197895889,-0.3698735042181853,13.997400279453181,0.30632606883814323,-29.0,-855.658891
385,13.048423989320762,-0.6559969090852493,14.031292289815052,0.9894134084360731,-29.0,-855.658891
386,13.082315999682635,-0.8076177154210612,14.065184300176925,1.4825014232435665,-29.0,-855.658891
387,13.116208010044506,-0.8061653247039912,14.099076310538797,1.6116900515346502,-29.0,-855.658891
388,13.150100020406379,-0.6365542952084919,14.13296832090067,1.3448805086760496,-29.0,-855.658891
389,13.183992030768252,-0.31168910785777787,14.166860331262543,0.799501921407012,-29.0,-855.658891
390,13.217884041130123,0.10509835585634718,14.200752341624414,0.16338168618047644,-29.0,-855.658891
391,13.251776051491996,0.5063551263963796,14.234644351986287,-0.40963057059617775,-29.0,-855.658891
392,13.285668061853867,0.7772241895526104,14.505780434881263,0.9929637059439637,-36.0,-1062.197244
393,13.31956007221574,0.8395096997202791,14.539672445243136,1.4364466724516476,-36.0,-1062.197244
394,13.353452082577611,0.6749503223759126,14.573564455605007,1.4454650528073765,-36.0,-1062.197244
395,13.387344092939484,0.3173773957760503,14.60745646596688,1.0550402587639973,-36.0,-1062.197244
396,13.421236103301355,-0.17052577374596845,14.641348476328751,0.4475627688059617,-36.0,-1062.197244
397,13.455128113663228,-0.709485371657679,14.675240486690624,-0.1623214272280729,-36.0,-1062.197244
398,13.4890201240251,-1.196416061145895,14.709132497052495,-0.6398925249355123,-36.0,-1062.197244
399,13.522912134386972,-1.5003018724135013,14.980268579947474,1.3848098683620418,-43.0,-1268.735597
400,13.556804144748844,-1.4927620954268368,15.014160590309345,1.8504194133730765,-43.0,-1268.735597
401,13.590696155110717,-1.1147790795057992,15.048052600671218,1.836012909949122,-43.0,-1268.735597
402,13.624588165472588,-0.4366451283106328,15.081944611033089,1.3761014709715147,-43.0,-1268.735597
403,13.65848017583446,0.34592294560159875,15.115836621394962,0.6645241911874249,-43.0,-1268.735597
404,13.692372186196332,0.9977562291367935,15.149728631756833,-0.06353429495772396,-43.0,-1268.735597
405,13.726264196558205,1.3635956383537144,15.183620642118706,-0.6506142151806401,-43.0,-1268.735597
406,13.760156206920078,1.4361988455077366,15.217512652480579,-1.0598545448726984,-43.0,-1268.735597
407,13.794048217281949,1.3234292357176212,15.488648735375554,1.6718185564591785,-50.0,-1475.27395
408,13.827940227643822,1.1449257770409556,15.522540745737427,1.6895486658629202,-50.0,-1475.27395
409,13.861832238005693,0.9444595110282547,15.556432756099298,1.2809421145979591,-50.0,-1475.27395
410,13.895724248367566,0.6859677983391842,15.59032476646117,0.6351017686578158,-50.0,-1475.27395
411,13.929616258729437,0.32538756491323023,15.624216776823042,-0.02415142687549987,-50.0,-1475.27395
412,13.96350826909131,-0.11600713116800226,15.89535285971802,0.636156793528185,-57.0,-1681.8123030000002
413,13.997400279453181,-0.5466323041576925,15.929244870079891,1.3725579755976927,-57.0,-1681.8123030000002
414,14.031292289815054,-0.8673387562327747,15.963136880441764,1.7502048220416881,-57.0,-1681.8123030000002
415,14.065184300176925,-1.0368215504849716,15.997028890803636,1.6311517899164232,-57.0,-1681.8123030000002
416,14.099076310538798,-1.081307286651356,16.03092090116551,1.0791903333229977,-57.0,-1681.8123030000002
417,14.13296832090067,-1.053307413701347,16.06481291152738,0.3112678539176246,-57.0,-1681.8123030000002
418,14.166860331262543,-0.9900451646924379,16.09870492188925,-0.43072718106983054,-57.0,-1681.8123030000002
419,14.200752341624414,-0.9064188293330149,12.370583782083319,-0.6894539840498174,54.0,1593.2958660000002
420,14.234644351986287,-0.8103621929881534,12.404475792445194,-1.1809237156433359,54.0,1593.2958660000002
421,14.268536362348158,-0.7079792061370203,12.438367802807065,-1.5019967968806278,54.0,1593.2958660000002
422,14.30242837271003,-0.5885278611167708,12.472259813168936,-1.649240371180284,54.0,1593.2958660000002
423,14.336320383071902,-0.4120767158564808,12.506151823530807,-1.5718840042179456,54.0,1593.2958660000002
424,14.370212393433775,-0.12755184552945148,12.540043833892682,-1.2000850495751183,54.0,1593.2958660000002
425,14.404104403795648,0.2799116854563899,12.573935844254553,-0.5254736548485788,54.0,1593.2958660000002
426,14.437996414157519,0.7494116256264881,12.607827854616424,0.3337953418716707,54.0,1593.2958660000002
427,14.471888424519392,1.1564073648857103,12.641719864978299,1.14627658844857,54.0,1593.2958660000002
428,14.505780434881263,1.3834558901211162,12.641719864978297,1.1462765884485429,55.0,1622.801345
429,14.539672445243136,1.4020819120169556,12.67561187534017,1.6644666989414474,55.0,1622.801345
430,14.573564455605007,1.2953300560135397,12.709503885702041,1.7460934178856715,55.0,1622.801345
431,14.60745646596688,1.1887841143310185,12.743395896063914,1.4180988182224925,55.0,1622.801345
432,14.641348476328751,1.1362743924355831,12.777287906425785,0.8425333318500137,55.0,1622.801345
433,14.675240486690624,1.0576960588209179,12.811179916787658,0.21377048955130215,55.0,1622.801345
434,14.709132497052495,0.7937299141198002,13.319560072215738,-0.5851609580896219,41.0,1209.724639
435,14.743024507414368,0.24602188182032833,13.353452082577611,-0.9133335931997001,41.0,1209.724639
436,14.77691651777624,-0.503857980554277,13.387344092939482,-1.1402834635413726,41.0,1209.724639
437,14.810808528138113,-1.1939009704052057,13.421236103301355,-1.2651180319562734,41.0,1209.724639
438,14.844700538499984,-1.5144847609757515,13.455128113663227,-1.2163908754038992,41.0,1209.724639
439,14.878592548861857,-1.2965107534717657,13.4890201240251,-0.9026958884870161,41.0,1209.724639
440,14.912484559223728,-0.6334515675447915,13.52291213438697,-0.30957506590974726,41.0,1209.724639
441,14.9463765695856,0.14914892825631898,13.556804144748844,0.4358420671819374,41.0,1209.724639
442,14.980268579947474,0.6658750196108634,13.590696155110717,1.0934490638555696,41.0,1209.724639
443,15.014160590309345,0.6783342098338504,13.861832238005693,-1.0793743790318515,34.0,1003.186286
444,15.048052600671218,0.2075192990834439,13.895724248367566,-1.0345248553352675,34.0,1003.186286
445,15.081944611033089,-0.5088818817666234,13.929616258729437,-0.8044069951821756,34.0,1003.186286
446,15.115836621394962,-1.1703410121509068,13.96350826909131,-0.34428829934516547,34.0,1003.186286
447,15.149728631756833,-1.5702631273923828,13.997400279453181,0.30632606883814323,34.0,1003.186286
448,15.183620642118706,-1.662074537381534,14.031292289815054,0.989413408436109,34.0,1003.186286
449,15.217512652480577,-1.5163625614163936,14.065184300176925,1.4825014232435665,34.0,1003.186286
450,15.25140466284245,-1.2272118313656977,14.336320383071904,-1.3571606227522799,27.0,796.6479330000001
451,15.285296673204321,-0.8468794453030593,14.370212393433775,-1.3531101601644333,27.0,796.6479330000001
452,15.319188683566194,-0.38570720074724324,14.404104403795648,-1.0776139450984847,27.0,796.6479330000001
453,15.353080693928066,0.1463069495125012,14.437996414157519,-0.5047382515739656,27.0,796.6479330000001
454,15.386972704289938,0.7045439705995802,14.471888424519392,0.26147656249394197,27.0,796.6479330000001
455,15.42086471465181,1.2076426631877768,14.9463765695856,0.5973829637133711,14.0,413.076706
456,15.454756725013683,1.5615092105148956,14.980268579947474,1.3848098683620418,14.0,413.076706
457,15.488648735375554,1.6914420105365142,15.048052600671216,1.8360129099491227,13.0,383.571227
458,15.522540745737427,1.569703705548172,15.081944611033089,1.3761014709715147,13.0,383.571227
459,15.5564327560993,1.2293340058948934,15.115836621394962,0.6645241911874249,13.0,383.571227
460,15.59032476646117,0.7559514267764932,15.149728631756833,-0.06353429495772396,13.0,383.571227
461,15.624216776823044,0.25735525531592207,15.183620642118706,-0.6506142151806401,13.0,383.571227
462,15.658108787184915,-0.1746263772813708,15.217512652480577,-1.0598545448726844,13.0,383.571227
463,15.692000797546788,-0.48717534865878515,15.217512652480579,-1.0598545448726984,14.0,413.076706
464,15.725892807908659,-0.6611908485816438,15.25140466284245,-1.3249777831769745,14.0,413.076706
465,15.759784818270532,-0.6882199881976747,15.285296673204323,-1.4598939471426104,14.0,413.076706
466,15.793676828632403,-0.5569881145267355,15.319188683566194,-1.4080168472568746,14.0,413.076706
467,15.827568838994276,-0.26808490557927306,15.353080693928067,-1.077526558498991,14.0,413.076706
468,15.861460849356147,0.1342277940693281,15.386972704289938,-0.43820289989553374,14.0,413.076706
469,15.89535285971802,0.5473527618905722,15.420864714651811,0.39877508714264204,14.0,413.076706
470,15.929244870079891,0.8389261057204576,15.454756725013683,1.1908628417942513,14.0,413.076706
471,15.963136880441764,0.9082397079553886,15.488648735375556,1.6718185564591794,14.0,413.076706
472,15.997028890803636,0.7376126486855161,15.522540745737427,1.6895486658629202,14.0,413.076706
473,16.03092090116551,0.3942123267073638,15.5564327560993,1.2809421145979378,14.0,413.076706
474,16.06481291152738,-0.017801200314818747,15.59032476646117,0.6351017686578158,14.0,413.076706
475,16.09870492188925,-0.4141517167447354,15.624216776823042,-0.02415142687549987,14.0,413.076706
476,16.132596932251126,-0.751698278461293,15.89535285971802,0.636156793528185,7.0,206.538353
477,16.166488942612997,-1.0057990625531048,15.929244870079891,1.3725579755976927,7.0,206.538353
478,16.200380952974868,-1.1365284361981012,15.963136880441763,1.7502048220416684,7.0,206.538353
479,16.234272963336743,-1.0847162951854228,15.997028890803637,1.6311517899163943,7.0,206.538353
480,16.268164973698614,-0.8104037212671291,16.268164973698614,-1.3916441106403001,0.0,0.0
481,16.302056984060485,-0.34663325090930935,16.302056984060485,-0.925260510540163,0.0,0.0
482,16.335948994422356,0.17946423826931399,16.335948994422356,-0.18877254920459086,0.0,0.0
483,16.36984100478423,0.5900563932156935,16.36984100478423,0.6714113518954771,0.0,0.0
484,16.403733015146102,0.7481506261081757,16.403733015146102,1.4071305853234466,0.0,0.0
485,16.437625025507973,0.6367118838293564,16.437625025507973,1.7811609175670657,0.0,0.0
486,16.471517035869844,0.3657667901661539,16.471517035869844,1.6853624382325443,0.0,0.0
487,16.50540904623172,0.09806003872606675,16.50540904623172,1.18620337998189,0.0,0.0
488,16.53930105659359,-0.057014876325799733,16.53930105659359,0.47334906894270234,0.0,0.0
489,16.57319306695546,-0.10780143959259177,16.57319306695546,-0.2450001517280702,0.0,0.0
490,16.607085077317333,-0.15714147045577032,16.607085077317333,-0.8258536379203858,0.0,0.0
491,16.640977087679207,-0.307380921805019,16.640977087679207,-1.2064642019262166,0.0,0.0
492,16.67486909804108,-0.5640783027540541,16.67486909804108,-1.3617828810560546,0.0,0.0
493,16.70876110840295,-0.8131446661828906,16.70876110840295,-1.2598637304637106,0.0,0.0
494,16.742653118764824,-0.8922735438815953,16.742653118764824,-0.8662133366982391,0.0,0.0
495,16.776545129126696,-0.7052683280092507,16.776545129126696,-0.19885334654573486,0.0,0.0
496,16.810437139488567,-0.2943603932855935,16.810437139488567,0.6170918000253026,0.0,0.0
497,16.844329149850438,0.18158726358982452,16.844329149850438,1.3567822997663104,0.0,0.0
498,16.878221160212313,0.5431235894725753,16.640977087679207,-1.2064642019262166,7.0,206.538353
499,16.912113170574184,0.6889696884332356,16.67486909804108,-1.3617828810560546,7.0,206.538353
500,16.946005180936055,0.6329487858769152,16.70876110840295,-1.2598637304637106,7.0,206.538353
501,16.979897191297926,0.4667187392149265,16.74265311876482,-0.8662133366982804,7.0,206.538353
502,17.0137892016598,0.2870226378231964,16.776545129126696,-0.19885334654573486,7.0,206.538353
503,17.047681212021672,0.1405183372291955,16.776545129126696,-0.19885334654573486,8.0,236.043832
504,17.081573222383543,0.017386273722951318,16.810437139488567,0.6170918000253026,8.0,236.043832
505,17.115465232745414,-0.1099181944569904,17.081573222383543,-1.1295405339797875,1.0,29.505479
506,17.14935724310729,-0.23497746645790368,17.115465232745418,-1.387866982785325,1.0,29.505479
507,17.18324925346916,-0.29542230827558363,17.14935724310729,-1.4705223509781504,1.0,29.505479
508,17.21714126383103,-0.20525483720898627,17.18324925346916,-1.3235466974679433,1.0,29.505479
509,17.251033274192903,0.07552165945260642,17.454385336364137,0.20637958917241414,-6.0,-177.032874
510,17.284925284554777,0.4862842501063087,17.48827734672601,-0.5140531147411863,-6.0,-177.032874
511,17.31881729491665,0.8750424413610174,17.284925284554777,0.6508900770238303,1.0,29.505479
512,17.35270930527852,1.075693739800081,17.31881729491665,1.3463832250210164,1.0,29.505479
513,17.386601315640394,1.0044667751011127,17.352709305278523,1.6676954915019466,1.0,29.505479
514,17.420493326002266,0.7082221671650417,17.386601315640394,1.5101321081413526,1.0,29.505479
515,17.454385336364137,0.3302228225445205,17.420493326002266,0.9537766117819011,1.0,29.505479
516,17.488277346726008,0.018468422954729724,17.454385336364137,0.20637958917241414,1.0,29.505479
517,17.522169357087883,-0.15946330554283292,17.48827734672601,-0.5140531147411863,1.0,29.505479
518,17.556061367449754,-0.2410483081437664,17.522169357087883,-1.07294393303742,1.0,29.505479
519,17.589953377811625,-0.3239591442278498,17.556061367449754,-1.4318356995342039,1.0,29.505479
520,17.623845388173496,-0.48617278221114973,17.115465232745414,-1.3878669827853163,15.0,442.58218500000004
521,17.65773739853537,-0.7220250278276417,17.14935724310729,-1.4705223509781504,15.0,442.58218500000004
522,17.691629408897242,-0.9327017552329704,17.18324925346916,-1.3235466974679433,15.0,442.58218500000004
523,17.725521419259113,-0.9781720805768854,17.21714126383103,-0.8867015032236248,15.0,442.58218500000004
524,17.759413429620984,-0.7622760570889444,17.251033274192903,-0.17794192070064427,15.0,442.58218500000004
525,17.79330543998286,-0.301959008542754,17.284925284554777,0.6508900770238303,15.0,442.58218500000004
526,17.82719745034473,0.2621674525843595,17.31881729491665,1.3463832250210164,15.0,442.58218500000004
527,17.8610894607066,0.7250694598642229,17.589953377811625,-1.5905726592440383,8.0,236.043832
528,17.894981471068473,0.9152308249387235,17.623845388173496,-1.5239764354069674,8.0,236.043832
529,17.928873481430347,0.7736206496852697,17.65773739853537,-1.1774388019136148,8.0,236.043832
530,17.96276549179222,0.3686993617907618,17.454385336364137,0.20637958917241414,15.0,442.58218500000004
531,17.99665750215409,-0.1515383910577657,17.488277346726008,-0.5140531147411277,15.0,442.58218500000004
532,18.030549512515964,-0.6296273154726488,17.522169357087883,-1.07294393303742,15.0,442.58218500000004
533,18.064441522877836,-0.9495820978479338,17.99665750215409,-1.0641077527004223,2.0,59.010958
534,18.098333533239707,-1.0561050380451245,18.03054951251596,-1.3148956323499508,2.0,59.010958
535,18.132225543601578,-0.951371424998584,18.064441522877832,-1.372952262775774,2.0,59.010958
536,18.166117553963453,-0.6811099386195415,17.65773739853537,-1.1774388019136148,15.0,442.58218500000004
537,18.200009564325324,-0.3183335539905327,17.691629408897242,-0.531259702757714,15.0,442.58218500000004
538,18.233901574687195,0.04928811707437714,17.725521419259113,0.32139685617801017,15.0,442.58218500000004
539,18.267793585049066,0.33004933011250465,18.20000956432532,1.0208317020279563,2.0,59.010958
540,18.30168559541094,0.4471412173090201,18.233901574687195,1.7650567958352499,2.0,59.010958
541,18.335577605772812,0.37008345458210623,18.267793585049066,2.072357499123321,2.0,59.010958
542,18.369469616134683,0.1409699572630566,18.301685595410937,1.8274531877739055,2.0,59.010958
543,18.403361626496554,-0.1344203598857725,18.33557760577281,1.1261336649301528,2.0,59.010958
544,18.43725363685843,-0.3393826803115797,18.369469616134683,0.2116927846519841,2.0,59.010958
545,18.4711456472203,-0.4102045284062864,18.403361626496554,-0.6567187834272835,2.0,59.010958
546,18.50503765758217,-0.3604823824241771,18.437253636858426,-1.3105546214655246,2.0,59.010958
547,18.538929667944046,-0.245658241497684,18.4711456472203,-1.6912484074990275,2.0,59.010958
548,18.572821678305917,-0.10104486121885019,18.50503765758217,-1.7949763704678072,2.0,59.010958
549,18.60671368866779,0.08944931886267811,18.538929667944043,-1.6114446604755712,2.0,59.010958
550,18.64060569902966,0.3668958647831076,18.572821678305914,-1.1201984275717807,2.0,59.010958
551,18.674497709391535,0.741439609123679,18.843957761200894,-0.3104318224549401,-5.0,-147.527395
552,18.708389719753406,1.1607224592344048,18.877849771562765,-1.008652591494451,-5.0,-147.527395
553,18.742281730115277,1.5284429660332095,18.911741781924636,-1.4766895266217066,-5.0,-147.527395
554,18.776173740477148,1.7498299857427702,18.708389719753402,1.848219547699246,2.0,59.010958
555,18.810065750839023,1.7627722071576999,18.742281730115277,1.8126352246504813,2.0,59.010958
556,18.843957761200894,1.5392403185669008,18.776173740477148,1.309582291713793,2.0,59.010958
557,18.877849771562765,1.076373186406007,18.81006575083902,0.523582134678552,2.0,59.010958
558,18.911741781924636,0.40231713164852345,18.84395776120089,-0.31043182245485257,2.0,59.010958
559,18.94563379228651,-0.4025685062967026,18.877849771562765,-1.008652591494451,2.0,59.010958
560,18.979525802648382,-1.1939782177143023,18.911741781924636,-1.4766895266217066,2.0,59.010958
561,19.013417813010253,-1.7874684299668218,18.945633792286507,-1.6789772188850542,2.0,59.010958
562,19.047309823372125,-2.020806958651475,18.97952580264838,-1.5891121438938955,2.0,59.010958
563,19.081201833734,-1.8286007379800746,19.013417813010253,-1.1799185268161685,2.0,59.010958
564,19.11509384409587,-1.2872537939249589,19.047309823372125,-0.46879154136408663,2.0,59.010958
565,19.14898585445774,-0.5969009120489703,19.081201833733996,0.4245529540212377,2.0,59.010958
566,19.182877864819616,0.002030744243873799,19.11509384409587,1.2730573307016084,2.0,59.010958
567,19.216769875181487,0.3396954700809036,19.14898585445774,1.8185200423221517,2.0,59.010958
568,19.25066188554336,0.39054464959253127,19.182877864819613,1.8902553478304085,2.0,59.010958
569,19.28455389590523,0.25831144590192245,19.216769875181484,1.4872519503605703,2.0,59.010958
570,19.318445906267105,0.07938610034009534,19.25066188554336,0.7676897287269546,2.0,59.010958
571,19.352337916628976,-0.08187329001543607,19.28455389590523,-0.0428876838255726,2.0,59.010958
572,19.386229926990847,-0.25986001011871235,19.3184459062671,-0.7570898238413477,2.0,59.010958
573,19.420121937352718,-0.5141063198195057,19.352337916628972,-1.2757919684440564,2.0,59.010958
574,19.454013947714593,-0.8218571264046016,19.386229926990847,-1.5645470003398325,2.0,59.010958
575,19.487905958076464,-1.0375409553026156,19.420121937352718,-1.5980046153604806,2.0,59.010958
576,19.521797968438335,-0.967044228885372,19.45401394771459,-1.335600078973816,2.0,59.010958
577,19.555689978800206,-0.5088627661977565,19.48790595807646,-0.7585342361804558,2.0,59.010958
578,19.58958198916208,0.24554010668219206,19.521797968438335,0.06254385799453852,2.0,59.010958
579,19.623473999523952,1.034894207542174,19.555689978800206,0.9364010462622284,2.0,59.010958
580,19.657366009885823,1.5665284015254677,19.589581989162077,1.602466080148198,2.0,59.010958
581,19.691258020247695,1.675703656341702,19.62347399952395,1.845241462364528,2.0,59.010958
582,19.72515003060957,1.397622135970431,19.657366009885823,1.5982386232565104,2.0,59.010958
583,19.75904204097144,0.9111809934532787,19.691258020247695,0.9673230617079117,2.0,59.010958
584,19.79293405133331,0.40817728993419494,19.725150030609566,0.16245026233242243,2.0,59.010958
585,19.826826061695186,-0.009906430201145022,19.75904204097144,-0.6080120332770046,2.0,59.010958
586,19.860718072057058,-0.33955640825368427,19.79293405133331,-1.2070589027873564,2.0,59.010958
587,19.89461008241893,-0.6039449795505835,20.030178123866417,1.7133391990516238,-4.0,-118.021916
588,19.9285020927808,-0.7798187325767212,19.860718072057054,-1.651001152161297,2.0,59.010958
589,19.962394103142675,-0.7881944918749408,19.89461008241893,-1.4121950233816607,2.0,59.010958
590,19.996286113504546,-0.5522213510795783,19.9285020927808,-0.8323269790049417,2.0,59.010958
591,20.030178123866417,-0.0726676422292067,19.96239410314267,0.02190184245661908,2.0,59.010958
592,20.064070134228288,0.5352093514448629,20.199638175675776,-0.49025473827542726,-4.0,-118.021916
593,20.097962144590163,1.0696720608452361,20.23353018603765,-1.1675296196377332,-4.0,-118.021916
594,20.131854154952034,1.323024315371767,20.267422196399522,-1.6097013706963286,-4.0,-118.021916
595,20.165746165313905,1.1744316585048975,19.623473999523952,1.8452414623645534,16.0,472.087664
596,20.199638175675776,0.6482753506816191,19.657366009885823,1.5982386232565104,16.0,472.087664
597,20.23353018603765,-0.0910139566430224,19.691258020247698,0.9673230617078273,16.0,472.087664
598,20.267422196399522,-0.805147136087138,19.962394103142675,0.02190184245670857,9.0,265.549311
599,20.301314206761393,-1.2784808076104495,19.996286113504546,0.9608917133895777,9.0,265.549311
600,20.335206217123268,-1.4005383857757188,20.03017812386642,1.7133391990516578,9.0,265.549311
601,20.36909822748514,-1.1972053339565225,20.06407013422829,2.0380998698489763,9.0,265.549311
602,20.40299023784701,-0.8004741449069684,20.097962144590163,1.8389889129979347,9.0,265.549311
603,20.43688224820888,-0.3781225590886794,20.131854154952034,1.205274342704434,9.0,265.549311
604,20.470774258570756,-0.0595150612404578,20.36909822748514,-1.2001107311016033,3.0,88.516437
605,20.504666268932628,0.11025033530526991,20.40299023784701,-0.4386474332364732,3.0,88.516437
606,20.5385582792945,0.16859061971856223,20.43688224820888,0.47378721660679485,3.0,88.516437
607,20.57245028965637,0.18865590264402626,20.708018331103858,-1.305527983234531,-4.0,-118.021916
608,20.606342300018245,0.21795323992441618,20.504666268932628,1.7496624559668812,3.0,88.516437
609,20.640234310380116,0.24402583568931357,20.5385582792945,1.727545247750208,3.0,88.516437
610,20.674126320741987,0.20720552114192026,20.57245028965637,1.2644573509984178,3.0,88.516437
611,20.708018331103858,0.046196355349182275,20.843586372551346,-0.37152012237337395,-4.0,-118.021916
612,20.741910341465733,-0.25255966838890215,20.87747838291322,0.5106668256173448,-4.0,-118.021916
613,20.775802351827604,-0.6250726681120558,21.114722455446326,-0.9944305091942184,-10.0,-295.05479
614,20.809694362189475,-0.9363722584688674,21.148614465808198,-1.4977810007900694,-10.0,-295.05479
615,20.843586372551346,-1.0322273766811567,20.74191034146573,-1.5156250806436011,3.0,88.516437
616,20.87747838291322,-0.8196290439586861,20.775802351827604,-1.4511748606843204,3.0,88.516437
617,20.911370393275092,-0.3286751552508902,20.809694362189475,-1.067067375099932,3.0,88.516437
618,20.945262403636963,0.29191167025807524,20.843586372551346,-0.37152012237337395,3.0,88.516437
619,20.979154413998838,0.8506324486932039,21.114722455446326,-0.9944305091942184,-4.0,-118.021916
620,21.01304642436071,1.212004859554213,21.148614465808198,-1.4977810007900694,-4.0,-118.021916
621,21.04693843472258,1.3507815344270426,21.18250647617007,-1.7146652397731212,-4.0,-118.021916
622,21.08083044508445,1.3265531985409869,20.979154413998835,1.8533121249847537,3.0,88.516437
623,21.114722455446326,1.205311976846547,21.01304642436071,1.3815233270717795,3.0,88.516437
624,21.148614465808198,0.9971697305125444,21.04693843472258,0.5993545414398737,3.0,88.516437
625,21.18250647617007,0.6648253511454861,21.08083044508445,-0.25782073413183715,3.0,88.516437
626,21.21639848653194,0.1947543382619494,21.114722455446323,-0.9944305091941411,3.0,88.516437
627,21.250290496893815,-0.33382646742122823,21.148614465808198,-1.4977810007900694,3.0,88.516437
628,21.284182507255686,-0.7490852940270636,21.18250647617007,-1.7146652397731212,3.0,88.516437
629,21.318074517617557,-0.8686299010424418,21.21639848653194,-1.6097953512012286,3.0,88.516437
630,21.351966527979428,-0.611308987507708,21.25029049689381,-1.1613686908520093,3.0,88.516437
631,21.385858538341303,-0.061212431514387385,21.284182507255686,-0.40525721487037325,3.0,88.516437
632,21.419750548703174,0.5623017255197122,21.318074517617557,0.5158871511445099,3.0,88.516437
633,21.453642559065045,1.0114733572469397,21.555318590150662,-1.04720285321009,-3.0,-88.516437
634,21.487534569426916,1.126817406320099,21.589210600512533,-1.5714546368595137,-3.0,-88.516437
635,21.52142657978879,0.8936650876122519,21.419750548703174,1.870186553691002,3.0,88.516437
636,21.555318590150662,0.4135204250717867,21.453642559065045,1.3903574945323796,3.0,88.516437
637,21.589210600512533,-0.1758682023532941,21.487534569426916,0.5939907811170101,3.0,88.516437
638,21.623102610874408,-0.7687655375833287,21.724778641960025,-0.40028044738719526,-3.0,-88.516437
639,21.65699462123628,-1.3049146954772677,21.758670652321896,0.5548987780123426,-3.0,-88.516437
640,21.69088663159815,-1.7340417102893153,21.792562662683768,1.409808682665442,-3.0,-88.516437
641,21.72477864196002,-1.9764202152257113,21.82645467304564,1.8992529053268616,-3.0,-88.516437
642,21.758670652321896,-1.9260680012529419,21.65699462123628,-1.6776297022513027,3.0,88.516437
643,21.792562662683768,-1.5072392145932476,21.69088663159815,-1.1974283303686895,3.0,88.516437
644,21.82645467304564,-0.7478737516273801,21.928130704131256,0.5487139723479264,-3.0,-88.516437
645,21.86034668340751,0.1885801665246655,21.962022714493127,-0.32285769020860366,-3.0,-88.516437
646,21.894238693769385,1.0484112305802802,21.995914724855,-1.0608264865345638,-3.0,-88.516437
647,21.928130704131256,1.5916405282710864,21.82645467304564,1.8992529053268616,3.0,88.516437
648,21.962022714493127,1.6943416107487028,21.86034668340751,1.8721040613928983,3.0,88.516437
649,21.995914724854998,1.3900476604973633,21.89423869376938,1.36005370977888,3.0,88.516437
650,22.029806735216873,0.8310399718966645,21.928130704131256,0.5487139723479264,3.0,88.516437
651,22.063698745578744,0.19992922106699912,21.962022714493127,-0.32285769020860366,3.0,88.516437
652,22.097590755940615,-0.370564373063414,22.199266787026232,0.6826492408222454,-3.0,-88.516437
653,22.13148276630249,-0.8238887149331707,22.233158797388107,1.544611153819444,-3.0,-88.516437
654,22.16537477666436,-1.1488338383331609,22.26705080774998,2.040563491740371,-3.0,-88.516437
655,22.199266787026232,-1.3299159754744674,22.097590755940615,-1.6003917479487528,3.0,88.516437
656,22.233158797388104,-1.3272043123130686,22.131482766302486,-1.097171885090194,3.0,88.516437
657,22.26705080774998,-1.1038660130151887,22.16537477666436,-0.2832254380198231,3.0,88.516437
658,22.30094281811185,-0.6732344027497403,22.402618849197466,-0.23578643559987822,-3.0,-88.516437
659,22.33483482847372,-0.11771464800158708,22.436510859559338,-1.0345250635638605,-3.0,-88.516437
660,22.36872683883559,0.4394012174952711,22.47040286992121,-1.5952046348821451,-3.0,-88.516437
661,22.402618849197466,0.8829090278474476,22.504294880283084,-1.8453948984702488,-3.0,-88.516437
662,22.436510859559338,1.1370304583237028,22.538186890644955,-1.734466668399334,-3.0,-88.516437
663,22.47040286992121,1.1682145061764242,22.572078901006826,-1.2410455572528698,-3.0,-88.516437
664,22.50429488028308,0.9782814288812458,22.605970911368697,-0.4205318232978612,-3.0,-88.516437
665,22.538186890644955,0.6085784766590492,22.639862921730572,0.5550701154395719,-3.0,-88.516437
666,22.572078901006826,0.15389484906062545,22.673754932092443,1.4203594866453824,-3.0,-88.516437
667,22.605970911368697,-0.23748994696177644,22.707646942454314,1.9118156139707838,-3.0,-88.516437
668,22.63986292173057,-0.40280362386859736,22.741538952816185,1.8825259024643421,-3.0,-88.516437
669,22.673754932092443,-0.24063524307401105,22.538186890644955,-1.734466668399334,4.0,118.021916
670,22.707646942454314,0.2185878807359655,22.572078901006826,-1.2410455572528698,4.0,118.021916
671,22.741538952816185,0.8043091843113468,22.843214983901802,-0.4020165532800659,-3.0,-88.516437
672,22.77543096317806,1.280910165798685,22.877106994263677,-1.2241261511706314,-3.0,-88.516437
673,22.80932297353993,1.4647652772278172,22.91099900462555,-1.8107202567340168,-3.0,-88.516437
674,22.843214983901802,1.3070043696142215,22.94489101498742,-2.072627959698202,-3.0,-88.516437
675,22.877106994263674,0.8907045687904506,22.97878302534929,-1.93929308366656,-3.0,-88.516437
676,22.91099900462555,0.3557993359333925,22.77543096317806,1.3619408161061686,4.0,118.021916
677,22.94489101498742,-0.18522299671611897,22.80932297353993,0.5246656521612918,4.0,118.021916
678,22.97878302534929,-0.6827932077269097,23.080459056434908,0.6458684362789963,-3.0,-88.516437
679,23.012675035711162,-1.127585254592818,23.11435106679678,1.6167084994410676,-3.0,-88.516437
680,23.046567046073037,-1.504488770770575,23.148243077158654,2.1778605414364978,-3.0,-88.516437
681,23.080459056434908,-1.76395463168991,23.182135087520525,2.1834332938570373,-3.0,-88.516437
682,23.11435106679678,-1.8278986039022693,23.216027097882396,1.6831235644023712,-3.0,-88.516437
683,23.14824307715865,-1.6227363452240684,23.012675035711162,-1.3780664958348952,4.0,118.021916
684,23.182135087520525,-1.1216105991523522,23.046567046073037,-0.45096238455968607,4.0,118.021916
685,23.216027097882396,-0.378270380921026,23.317703128968013,-0.7721127533097026,-3.0,-88.516437
686,23.249919108244267,0.4619029896693177,23.351595139329884,-1.3450267261905382,-3.0,-88.516437
687,23.28381111860614,1.1858888318037895,23.385487149691755,-1.6707563540399086,-3.0,-88.516437
688,23.317703128968013,1.5770264992397725,23.182135087520525,2.1834332938570373,4.0,118.021916
689,23.351595139329884,1.5036274249926387,23.216027097882396,1.6831235644023712,4.0,118.021916
690,23.385487149691755,0.9904949035783461,23.249919108244267,0.8760429346093396,4.0,118.021916
691,23.41937916005363,0.2266044478972221,23.283811118606142,-0.001204235213494379,4.0,118.021916
692,23.4532711704155,-0.5046689987964289,23.55494720150112,1.2373593148411064,-3.0,-88.516437
693,23.487163180777372,-0.9379921753623728,23.58883921186299,1.8514723559575175,-3.0,-88.516437
694,23.521055191139244,-0.9255491568321438,23.385487149691755,-1.6707563540399086,4.0,118.021916
695,23.55494720150112,-0.4866313988572296,23.41937916005363,-1.6926993443339091,4.0,118.021916
696,23.58883921186299,0.20113424768756158,23.4532711704155,-1.3498712338123997,4.0,118.021916
697,23.62273122222486,0.8650682750907278,23.487163180777372,-0.6406302788399304,4.0,118.021916
698,23.656623232586732,1.2433208715599744,23.75829926367235,-0.8685886696662507,-3.0,-88.516437
699,23.690515242948607,1.1975574931623423,23.758299263672352,-0.8685886696663109,-2.0,-59.010958
700,23.724407253310478,0.7732770404658429,23.792191274034224,-1.4427259161205026,-2.0,-59.010958
701,23.75829926367235,0.1643173676622953,23.826083284396095,-1.7826395204375811,-2.0,-59.010958
702,23.79219127403422,-0.40262224184860973,23.859975294757966,-1.8533238268282712,-2.0,-59.010958
703,23.826083284396095,-0.790589864987203,23.89386730511984,-1.5951566034866655,-2.0,-59.010958
704,23.859975294757966,-1.0043669257036636,23.927759315481712,-0.9701221809046625,-2.0,-59.010958
705,23.893867305119837,-1.1458100458008595,23.961651325843583,-0.043964659460103354,-2.0,-59.010958
706,23.927759315481712,-1.312253111338086,23.995543336205458,0.9737353224053209,-2.0,-59.010958
707,23.961651325843583,-1.509098959260422,24.02943534656733,1.7852745428281094,-2.0,-59.010958
708,23.995543336205454,-1.6310038483848446,24.0633273569292,2.135643165972423,-2.0,-59.010958
709,24.029435346567325,-1.5215400152065783,23.893867305119837,-1.595156603486731,4.0,118.021916
710,24.0633273569292,-1.0757284451666476,23.927759315481712,-0.9701221809046625,4.0,118.021916
711,24.09721936729107,-0.3229039805270693,24.165003388014817,0.41883923084335084,-2.0,-59.010958
712,24.131111377652942,0.5648488848841474,24.19889539837669,-0.4435395905013287,-2.0,-59.010958
713,24.165003388014814,1.3475473528821609,24.23278740873856,-1.155976472621411,-2.0,-59.010958
714,24.19889539837669,1.8277353100272673,24.266679419100434,-1.653976738752958,-2.0,-59.010958
715,24.23278740873856,1.9269043692011478,24.09721936729107,1.9344023082547714,4.0,118.021916
716,24.26667941910043,1.6895780266877432,24.131111377652942,1.2868026389337774,4.0,118.021916
717,24.300571429462302,1.2311783639029386,24.165003388014814,0.4188392308434412,4.0,118.021916
718,24.334463439824177,0.677178483325191,24.19889539837669,-0.4435395905013287,4.0,118.021916
719,24.368355450186048,0.13131049134880482,24.436139470909794,0.5790369141321235,-2.0,-59.010958
720,24.40224746054792,-0.32288227434722666,24.470031481271665,1.5622500590994715,-2.0,-59.010958
721,24.43613947090979,-0.6109528177502167,24.503923491633536,2.154277403926258,-2.0,-59.010958
722,24.470031481271665,-0.6738402132012635,24.334463439824177,-1.810938202661185,4.0,118.021916
723,24.503923491633536,-0.4956676461992345,24.368355450186048,-1.3366902250668162,4.0,118.021916
724,24.537815501995407,-0.128520478898472,24.40224746054792,-0.4855935759295579,4.0,118.021916
725,24.571707512357282,0.31614503035935676,24.436139470909794,0.5790369141321235,4.0,118.021916
726,24.605599522719153,0.7134961800915973,24.6733835434429,-0.7940760111867964,-2.0,-59.010958
727,24.639491533081024,0.9781479731643106,24.70727555380477,-1.3405110809262957,-2.0,-59.010958
728,24.673383543442895,1.0844405059913806,24.74116756416664,-1.6680994960143827,-2.0,-59.010958
729,24.70727555380477,1.0418039165381785,24.775059574528516,-1.755572579750111,-2.0,-59.010958
730,24.74116756416664,0.8526400151927247,24.808951584890387,-1.5421514599040094,-2.0,-59.010958
731,24.775059574528512,0.4970757541394638,24.84284359525226,-0.9769969173066754,-2.0,-59.010958
732,24.808951584890384,-0.03463189691243617,24.87673560561413,-0.10843748089792012,-2.0,-59.010958
733,24.84284359525226,-0.6868582688647576,24.910627615976004,0.8675989181222661,-2.0,-59.010958
734,24.87673560561413,-1.3123222728008035,24.944519626337875,1.6567916706476702,-2.0,-59.010958
735,24.910627615976,-1.710171820758275,24.978411636699747,1.9962330125161967,-2.0,-59.010958
736,24.944519626337872,-1.7177229022291978,25.012303647061618,1.782274385262491,-2.0,-59.010958
737,24.978411636699747,-1.3040601863720676,25.046195657423493,1.111513241331657,-2.0,-59.010958
738,25.012303647061618,-0.6049906050927711,25.080087667785364,0.21378768576250154,-2.0,-59.010958
739,25.04619565742349,0.13005929493793497,25.113979678147235,-0.6668500762021903,-2.0,-59.010958
740,25.08008766778536,0.653579901416344,25.147871688509106,-1.3589408384019663,-2.0,-59.010958
741,25.113979678147235,0.8299285212846824,25.18176369887098,-1.7732092639252315,-2.0,-59.010958
742,25.147871688509106,0.6752296373411217,25.215655709232852,-1.8593370521321906,-2.0,-59.010958
743,25.181763698870977,0.3115480304344775,25.249547719594723,-1.5747883766308186,-2.0,-59.010958
744,25.215655709232852,-0.12267481429617647,25.283439729956598,-0.9098213321147031,-2.0,-59.010958
745,25.249547719594723,-0.5397464601840106,25.31733174031847,0.04950384169689224,-2.0,-59.010958
746,25.283439729956594,-0.906999675715135,25.35122375068034,1.0868296157083737,-2.0,-59.010958
747,25.317331740318465,-1.2018089281638857,25.38511576104221,1.9046560208537713,-2.0,-59.010958
748,25.35122375068034,-1.3690973179128525,25.419007771404086,2.246556542403703,-2.0,-59.010958
749,25.38511576104221,-1.325446150997491,25.452899781765957,2.017109178319494,-2.0,-59.010958
750,25.419007771404083,-1.0103696068446857,25.48679179212783,1.3180802394064939,-2.0,-59.010958
751,25.452899781765954,-0.44395249609142284,25.5206838024897,0.37928846544399053,-2.0,-59.010958
752,25.48679179212783,0.25682121656393303,25.554575812851574,-0.5612372974206714,-2.0,-59.010958
753,25.5206838024897,0.9199295652219253,25.588467823213445,-1.3426916507505318,-2.0,-59.010958
754,25.55457581285157,1.3923088713624239,25.622359833575317,-1.8845696377358148,-2.0,-59.010958
755,25.588467823213442,1.5979259785252855,25.656251843937188,-2.131219321150408,-2.0,-59.010958
756,25.622359833575317,1.5461137590092442,25.690143854299063,-2.0091107426538084,-2.0,-59.010958
757,25.656251843937188,1.2946154399010328,25.724035864660934,-1.4526325996532345,-2.0,-59.010958
758,25.69014385429906,0.9043016652587178,25.995171947555907,-0.1348816358926601,-9.0,-265.549311
759,25.724035864660934,0.42366973234471306,26.02906395791778,-1.0523451971292381,-9.0,-265.549311
760,25.757927875022805,-0.0894500617118688,26.062955968279653,-1.7327486436893746,-9.0,-265.549311
761,25.791819885384676,-0.5379198831876629,26.096847978641524,-2.123809853721992,-9.0,-265.549311
762,25.825711895746547,-0.7880901609056427,26.130739989003395,-2.1667290983629814,-9.0,-265.549311
763,25.859603906108422,-0.7233551888086717,26.16463199936527,-1.787754169953882,-9.0,-265.549311
764,25.893495916470293,-0.3223287667612377,26.401876071898375,1.2455264567093218,-15.0,-442.58218500000004
765,25.927387926832164,0.29686032599707896,26.435768082260246,0.20312641651415392,-15.0,-442.58218500000004
766,25.961279937194035,0.9126463372252279,26.469660092622117,-0.7680429254627222,-15.0,-442.58218500000004
767,25.99517194755591,1.305621846890135,26.503552102983992,-1.5151873841414818,-15.0,-442.58218500000004
768,26.02906395791778,1.3642260203578263,26.537444113345863,-1.9816792631098938,-15.0,-442.58218500000004
769,26.062955968279653,1.1161440105964318,26.571336123707734,-2.1370037726403313,-15.0,-442.58218500000004
770,26.096847978641524,0.6691460192329466,26.605228134069606,-1.9283587226186156,-15.0,-442.58218500000004
771,26.1307399890034,0.11696434523047729,25.96127993719404,0.9084326145867531,5.0,147.527395
772,26.16463199936527,-0.5094674383505176,26.232416020089016,0.17479750643994663,-2.0,-59.010958
773,26.19852400972714,-1.2063228715308136,26.266308030450887,1.3516852802708696,-2.0,-59.010958
774,26.232416020089012,-1.9116035996313212,26.300200040812758,2.2077403727750364,-2.0,-59.010958
775,26.266308030450887,-2.453817063806161,26.334092051174633,2.47472288418472,-2.0,-59.010958
776,26.300200040812758,-2.5985951637662064,26.367984061536504,2.097910479121789,-2.0,-59.010958
777,26.33409205117463,-2.178423498580692,26.401876071898375,1.2455264567093218,-2.0,-59.010958
778,26.367984061536504,-1.2166411965440704,26.43576808226025,0.2031264165140521,-2.0,-59.010958
779,26.401876071898375,0.046805399157965014,26.232416020089016,0.17479750643994663,5.0,147.527395
780,26.435768082260246,1.2509558731258406,26.266308030450887,1.3516852802708696,5.0,147.527395
781,26.469660092622117,2.0712637322234677,26.50355210298399,-1.5151873841414034,-1.0,-29.505479
782,26.503552102983992,2.345095708554069,26.537444113345863,-1.9816792631098938,-1.0,-29.505479
783,26.537444113345863,2.100970974813256,26.571336123707734,-2.1370037726403313,-1.0,-29.505479
784,26.571336123707734,1.4929189382657535,26.605228134069606,-1.9283587226186156,-1.0,-29.505479
785,26.605228134069606,0.6993861426501212,26.876364216964582,0.7888652578372922,-8.0,-236.043832
786,26.63912014443148,-0.14089723077749036,26.910256227326457,-0.2435006802786751,-8.0,-236.043832
787,26.67301215479335,-0.9243162615177507,26.944148237688328,-1.1236927809976418,-8.0,-236.043832
788,26.706904165155223,-1.5395500997170801,26.9780402480502,-1.7570279587949955,-8.0,-236.043832
789,26.740796175517094,-1.8492452383428784,27.01193225841207,-2.1154287916793653,-8.0,-236.043832
790,26.77468818587897,-1.7340522297399443,27.045824268773945,-2.162912268256301,-8.0,-236.043832
791,26.80858019624084,-1.176918730425194,27.079716279135816,-1.83214142617437,-8.0,-236.043832
792,26.84247220660271,-0.3203633173159144,27.113608289497687,-1.081686688145765,-8.0,-236.043832
793,26.876364216964582,0.5634681677374078,27.14750029985956,0.010519168501845533,-8.0,-236.043832
794,26.910256227326457,1.1914673592750462,26.944148237688328,-1.1236927809976418,-1.0,-29.505479
795,26.944148237688328,1.4085714710147028,27.215284320583304,2.154704550179696,-8.0,-236.043832
796,26.9780402480502,1.2536843360069005,27.249176330945176,2.5706224237963373,-8.0,-236.043832
797,27.011932258412074,0.905788832965554,27.28306834130705,2.3446102762177246,-8.0,-236.043832
798,27.045824268773945,0.5504085445432566,27.31696035166892,1.5988255502501845,-8.0,-236.043832
799,27.079716279135816,0.2647834005205385,27.350852362030793,0.5999820035996196,-8.0,-236.043832
800,27.113608289497687,0.0016492203533948584,27.14750029985956,0.010519168501845533,-1.0,-29.505479
801,27.147500299859562,-0.32774467451624056,27.181392310221433,1.2032030234819628,-1.0,-29.505479
802,27.181392310221433,-0.7445318634685955,27.215284320583304,2.154704550179696,-1.0,-29.505479
803,27.215284320583304,-1.1520918849003652,27.249176330945176,2.5706224237963373,-1.0,-29.505479
804,27.249176330945176,-1.380156243651737,27.283068341307047,2.344610276217748,-1.0,-29.505479
805,27.28306834130705,-1.2915145639465242,27.31696035166892,1.5988255502501845,-1.0,-29.505479
806,27.31696035166892,-0.8794805573595444,27.350852362030793,0.5999820035996196,-1.0,-29.505479
807,27.350852362030793,-0.28984556675583295,27.384744372392664,-0.3857941230027538,-1.0,-29.505479
808,27.384744372392664,0.2524195330059566,27.418636382754535,-1.1983548087876628,-1.0,-29.505479
809,27.41863638275454,0.5695765929082605,27.45252839311641,-1.7870370306801546,-1.0,-29.505479
810,27.45252839311641,0.6298897060829889,27.48642040347828,-2.1330854657994043,-1.0,-29.505479
811,27.48642040347828,0.5517353298796818,27.520312413840152,-2.1743719206344356,-1.0,-29.505479
812,27.520312413840156,0.5083299177418883,27.554204424202027,-1.8101733096301675,-1.0,-29.505479
813,27.554204424202027,0.5996154337029515,27.588096434563898,-0.9935780213351476,-1.0,-29.505479
814,27.588096434563898,0.785219286044113,27.62198844492577,0.161770552148173,-1.0,-29.505479
815,27.62198844492577,0.9283199261456448,27.65588045528764,1.3592674386121522,-1.0,-29.505479
816,27.655880455287644,0.9133407779734687,27.689772465649515,2.2238932199975756,-1.0,-29.505479
817,27.689772465649515,0.7420931496198473,27.723664476011386,2.479207017521953,-1.0,-29.505479
818,27.723664476011386,0.5344227870002554,27.757556486373257,2.081928518164437,-1.0,-29.505479
819,27.757556486373257,0.4393957222598679,27.79144849673513,1.2256899068605405,-1.0,-29.505479
820,27.791448496735132,0.529748500514598,27.825340507097003,0.2179632243252041,-1.0,-29.505479
821,27.825340507097003,0.7546296656552938,27.859232517458874,-0.6799134357928213,-1.0,-29.505479
822,27.859232517458874,0.9732174909538189,27.893124527820746,-1.343611049397377,-1.0,-29.505479
823,27.893124527820746,1.0333537360519267,27.927016538182617,-1.7622651855429017,-1.0,-29.505479
824,27.92701653818262,0.8378148906185643,27.96090854854449,-1.943475424363203,-1.0,-29.505479
825,27.96090854854449,0.3647911896236757,27.994800558906363,-1.8399286202701906,-1.0,-29.505479
826,27.994800558906363,-0.34788251417486776,28.028692569268234,-1.367081049372175,-1.0,-29.505479
827,28.028692569268234,-1.2207030390440392,28.062584579630105,-0.5024768196463258,-1.0,-29.505479
828,28.06258457963011,-2.13132807512132,28.09647658999198,0.6166355017688678,-1.0,-29.505479
829,28.09647658999198,-2.9087487620313586,28.13036860035385,1.6901912593004123,-1.0,-29.505479
830,28.13036860035385,-3.3596143000716276,28.164260610715722,2.3722502619925856,-1.0,-29.505479
831,28.164260610715726,-3.3429119245803656,28.198152621077597,2.439714104966545,-1.0,-29.505479
832,28.198152621077597,-2.8557238225651904,28.232044631439468,1.9000831821360298,-1.0,-29.505479
833,28.232044631439468,-2.057598187702913,28.26593664180134,0.967936156094752,-1.0,-29.505479
834,28.26593664180134,-1.190943827228009,28.29982865216321,-0.06528343682791682,-1.0,-29.505479
835,28.299828652163214,-0.43780332767522356,28.299828652163214,-0.06528343682802515,0.0,0.0
836,28.333720662525085,0.18204564472581566,28.333720662525085,-0.9719956135544083,0.0,0.0
837,28.367612672886956,0.7869255566368117,28.367612672886956,-1.6478488489038918,0.0,0.0
838,28.401504683248827,1.4956788024919747,28.4353966936107,-2.2059844915034845,-1.0,-29.505479
839,28.435396693610702,2.2821920629069012,28.469288703972573,-1.9848708521618228,-1.0,-29.505479
840,28.469288703972573,2.9367742987008736,28.469288703972573,-1.9848708521618228,0.0,0.0
841,28.503180714334444,3.170433592126349,28.503180714334444,-1.3372904786904316,0.0,0.0
842,28.537072724696316,2.796003952423757,28.537072724696316,-0.3062978254966007,0.0,0.0
843,28.57096473505819,1.8672669344709263,28.57096473505819,0.8873384334467926,0.0,0.0
844,28.60485674542006,0.6849799120204118,28.60485674542006,1.8929133164084373,0.0,0.0
845,28.638748755781933,-0.3362178172361415,28.638748755781933,2.383253060838114,0.0,0.0
846,28.672640766143804,-0.8622945226494364,28.672640766143804,2.219798474128986,0.0,0.0
847,28.70653277650568,-0.7884978288691984,28.70653277650568,1.51830674623891,0.0,0.0
848,28.74042478686755,-0.27076518702135116,28.74042478686755,0.57275854441989,0.0,0.0
849,28.77431679722942,0.3639210976009392,28.77431679722942,-0.305452833866872,0.0,0.0
850,28.808208807591296,0.7756402271993147,28.808208807591296,-0.9245997318055633,0.0,0.0
851,28.842100817953167,0.7608823015037993,27.92701653818262,-1.7622651855429456,27.0,796.6479330000001
852,28.875992828315038,0.32475529882840876,27.96090854854449,-1.943475424363203,27.0,796.6479330000001
853,28.90988483867691,-0.35244316704272294,27.994800558906363,-1.8399286202701906,27.0,796.6479330000001
854,28.943776849038784,-1.02615317897653,28.028692569268237,-1.3670810493720844,27.0,796.6479330000001
855,28.977668859400655,-1.5068116852788775,28.06258457963011,-0.5024768196462353,27.0,796.6479330000001
856,29.011560869762526,-1.7208419978440634,28.09647658999198,0.6166355017688678,27.0,796.6479330000001
857,29.045452880124397,-1.6911669416330652,28.13036860035385,1.6901912593004123,27.0,796.6479330000001
858,29.079344890486272,-1.4701451195677298,28.164260610715726,2.372250261992657,27.0,796.6479330000001
859,29.113236900848143,-1.0851698876162768,28.198152621077597,2.439714104966545,27.0,796.6479330000001
860,29.147128911210014,-0.5383662925608114,28.232044631439468,1.9000831821360298,27.0,796.6479330000001
861,29.181020921571886,0.1471005301951682,28.26593664180134,0.967936156094752,27.0,796.6479330000001
862,29.21491293193376,0.8821710177327956,28.299828652163214,-0.06528343682802515,27.0,796.6479330000001
863,29.24880494229563,1.516191574211827,28.57096473505819,0.8873384334467926,20.0,590.10958
864,29.282696952657503,1.8953066086259271,28.60485674542006,1.8929133164084373,20.0,590.10958
865,29.316588963019377,1.9312418370082696,28.638748755781936,2.3832530608380966,20.0,590.10958
866,29.35048097338125,1.629022259618281,28.672640766143807,2.219798474128912,20.0,590.10958
867,29.38437298374312,1.0630267511754894,28.70653277650568,1.51830674623891,20.0,590.10958
868,29.41826499410499,0.33644700092397367,28.74042478686755,0.57275854441989,20.0,590.10958
869,29.452157004466866,-0.4372155729971681,28.774316797229424,-0.3054528338669369,20.0,590.10958
870,29.486049014828737,-1.1288720032141626,29.486049014828737,0.512290279841391,0.0,0.0
871,29.519941025190608,-1.5963554471272097,29.519941025190608,1.0826402646491053,0.0,0.0
872,29.55383303555248,-1.7202708073755806,29.55383303555248,1.3970035959394584,0.0,0.0
873,29.587725045914354,-1.461670681542341,29.38437298374312,-1.0747710695300252,6.0,177.032874
874,29.621617056276225,-0.9001639168869852,29.41826499410499,-0.7094718315935524,6.0,177.032874
875,29.655509066638096,-0.21620637034741935,29.452157004466862,-0.14323544601833027,6.0,177.032874
876,29.689401076999967,0.3831704361982292,29.486049014828733,0.5122902798413222,6.0,177.032874
877,29.723293087361842,0.7578460269367965,29.723293087361842,-0.49864097132807156,0.0,0.0
878,29.757185097723713,0.895077834131056,29.757185097723713,-0.8366188479414164,0.0,0.0
879,29.791077108085585,0.8993706335246858,29.791077108085585,-1.0458699819873465,0.0,0.0
880,29.824969118447456,0.9094870478885558,29.824969118447456,-1.1124106087901302,0.0,0.0
881,29.85886112880933,0.9841561495407358,29.85886112880933,-0.9945315000617438,0.0,0.0
882,29.8927531391712,1.0309480789991243,29.8927531391712,-0.6537590916182429,0.0,0.0
883,29.926645149533073,0.8441297796338519,29.926645149533073,-0.11226262279593549,0.0,0.0
884,29.960537159894947,0.251568850939698,29.960537159894947,0.5132068674022898,0.0,0.0
885,29.99442917025682,-0.7177922050032698,29.99442917025682,1.0384211183125671,0.0,0.0
886,30.02832118061869,-1.7729512740853302,30.02832118061869,1.2922095025753582,0.0,0.0
887,30.06221319098056,-2.475160087092077,30.06221319098056,1.19989954626615,0.0,0.0
888,30.096105201342436,-2.4742609095733847,30.096105201342436,0.8141206097670665,0.0,0.0
889,30.129997211704307,-1.7202408190909515,30.129997211704307,0.27517802125493634,0.0,0.0
890,30.163889222066178,-0.510931761578749,30.163889222066178,-0.2668278874959358,0.0,0.0
891,30.19778123242805,0.6592657429846891,30.19778123242805,-0.713001653289778,0.0,0.0
892,30.231673242789924,1.3575720753181602,30.231673242789924,-1.0242288537434276,0.0,0.0
893,30.265565253151795,1.421141429482746,30.265565253151795,-1.1858268049092984,0.0,0.0
894,30.299457263513666,0.9974412736448263,30.299457263513666,-1.1702374242589733,0.0,0.0
895,30.333349273875537,0.410369771105034,30.333349273875537,-0.9374556957177297,0.0,0.0
896,30.367241284237412,-0.04797021931104388,30.367241284237412,-0.47739617150585045,0.0,0.0
897,30.401133294599283,-0.26644824784362864,30.401133294599283,0.14180306989536504,0.0,0.0
898,30.435025304961155,-0.323333197663742,30.435025304961155,0.7669122031613048,0.0,0.0
899,30.468917315323026,-0.36919562767951714,30.468917315323026,1.212713795050218,0.0,0.0
900,30.5028093256849,-0.4796214803184794,30.299457263513666,-1.1702374242589733,6.0,177.032874
901,30.53670133604677,-0.5856712022440902,30.333349273875537,-0.9374556957177297,6.0,177.032874
902,30.570593346408643,-0.5275528860894063,30.36724128423741,-0.4773961715058987,6.0,177.032874
903,30.604485356770518,-0.18565319514482792,30.401133294599283,0.14180306989536504,6.0,177.032874
904,30.63837736713239,0.40990766105930493,30.67226937749426,-0.7299841526357073,-1.0,-29.505479
905,30.67226937749426,1.0692899849779869,30.70616138785613,-1.0141992459313558,-1.0,-29.505479
906,30.70616138785613,1.5370001466030982,30.740053398218002,-1.1405307697001295,-1.0,-29.505479
907,30.740053398218006,1.6247399011719175,30.773945408579877,-1.0546870747033341,-1.0,-29.505479
908,30.773945408579877,1.3001031389814106,30.807837418941748,-0.712654883273175,-1.0,-29.505479
909,30.807837418941748,0.687138597493521,30.84172942930362,-0.1404433521978892,-1.0,-29.505479
910,30.84172942930362,-0.006505313938270385,30.87562143966549,0.5306604492346747,-1.0,-29.505479
911,30.875621439665494,-0.5842942532587699,30.909513450027365,1.0951729883756594,-1.0,-29.505479
912,30.909513450027365,-0.9262435975803845,30.943405460389236,1.3633917529410502,-1.0,-29.505479
913,30.943405460389236,-1.0019323794133128,30.977297470751108,1.2544235092049583,-1.0,-29.505479
914,30.977297470751108,-0.8430407878638239,31.01118948111298,0.8300004693044423,-1.0,-29.505479
915,31.011189481112982,-0.5072849271067672,31.045081491474853,0.24891904221245786,-1.0,-29.505479
916,31.045081491474853,-0.058743613599669287,31.078973501836725,-0.32154064435891566,-1.0,-29.505479
917,31.078973501836725,0.433552913217398,31.112865512198596,-0.7746340545212449,-1.0,-29.505479
918,31.1128655121986,0.8928974032264226,31.14675752256047,-1.0734782476066371,-1.0,-29.505479
919,31.14675752256047,1.238355455352991,31.18064953292234,-1.210776893721975,-1.0,-29.505479
920,31.18064953292234,1.3908421145299426,31.214541543284213,-1.1661247013218685,-1.0,-29.505479
921,31.214541543284213,1.2756491844303715,31.248433553646084,-0.9041981883748247,-1.0,-29.505479
922,31.248433553646088,0.8308810025867857,31.28232556400796,-0.4177935478925363,-1.0,-29.505479
923,31.28232556400796,0.042721992765498644,31.31621757436983,0.22253269668069464,-1.0,-29.505479
924,31.31621757436983,-0.993205160559376,31.3501095847317,0.8611547290406244,-1.0,-29.505479
925,31.3501095847317,-2.0313546704911345,31.384001595093572,1.3108136167927165,-1.0,-29.505479
926,31.384001595093576,-2.722508325920416,31.417893605455447,1.437350523363618,-1.0,-29.505479
927,31.417893605455447,-2.7632559674554438,31.451785615817318,1.220410201479562,-1.0,-29.505479
928,31.451785615817318,-2.074221588811094,31.48567762617919,0.752119921564356,-1.0,-29.505479
929,31.48567762617919,-0.8820857699608464,31.51956963654106,0.1808167703729947,-1.0,-29.505479
930,31.519569636541064,0.3701676494388198,31.553461646902935,-0.3573791798148163,-1.0,-29.505479
931,31.553461646902935,1.2408305878819625,31.587353657264806,-0.7758186669859367,-1.0,-29.505479
932,31.587353657264806,1.4994439807835327,31.621245667626678,-1.0309203489837446,-1.0,-29.505479
933,31.621245667626678,1.2044255168726452,31.65513767798855,-1.095333504253516,-1.0,-29.505479
934,31.655137677988552,0.6199790882849694,31.689029688350423,-0.9465383492991141,-1.0,-29.505479
935,31.689029688350423,0.045192787983669866,31.722921698712295,-0.587171682791602,-1.0,-29.505479
936,31.722921698712295,-0.3333332307921081,31.756813709074166,-0.07836096897730938,-1.0,-29.505479
937,31.75681370907417,-0.4884908687626337,31.79070571943604,0.4520606105255166,-1.0,-29.505479
938,31.79070571943604,-0.49492508288953413,31.82459772979791,0.8485759867950537,-1.0,-29.505479
939,31.82459772979791,-0.42592463056922353,31.858489740159783,0.9961920126377627,-1.0,-29.505479
940,31.858489740159783,-0.28402348260116944,31.892381750521654,0.8714596150524385,-1.0,-29.505479
941,31.892381750521658,-0.010972956343744433,31.92627376088353,0.5410509866077327,-1.0,-29.505479
942,31.92627376088353,0.43848469073337754,31.9601657712454,0.11379379938722906,-1.0,-29.505479
943,31.9601657712454,1.0188832111679997,31.99405778160727,-0.3139930172591531,-1.0,-29.505479
944,31.99405778160727,1.5707002272368638,32.02794979196914,-0.6812379778718514,-1.0,-29.505479
945,32.02794979196914,1.8715042319869835,32.06184180233102,-0.9460168060835907,-1.0,-29.505479
946,32.06184180233102,1.737742037922952,32.09573381269289,-1.0578025214998161,-1.0,-29.505479
947,32.09573381269289,1.1257337458985848,32.129625823054766,-0.9547440828664606,-1.0,-29.505479
948,32.12962582305476,0.17593633639213047,32.163517833416634,-0.6001467534588706,-1.0,-29.505479
949,32.163517833416634,-0.8312267382771745,32.231301854140376,0.6019966846448392,-2.0,-59.010958
950,32.1974098437785,-1.5901494422762685,32.265193864502244,1.1105913439416284,-2.0,-59.010958
951,32.231301854140376,-1.8938663928102706,32.29908587486412,1.3208126150016883,-2.0,-59.010958
952,32.26519386450225,-1.704151397857237,32.33297788522599,1.1742686887739613,-2.0,-59.010958
953,32.29908587486412,-1.1443523168551122,32.36686989558786,0.7477652370024654,-2.0,-59.010958
954,32.33297788522599,-0.4328005046158167,32.400761905949736,0.20238866260973581,-2.0,-59.010958
955,32.36686989558787,0.20753319417867777,32.43465391631161,-0.3043538727634143,-2.0,-59.010958
956,32.400761905949736,0.6265736062789179,32.46854592667348,-0.683241900439695,-2.0,-59.010958
957,32.43465391631161,0.7818362621231671,32.50243793703535,-0.917261964422614,-2.0,-59.010958
958,32.468545926673485,0.7191610612620474,32.53632994739723,-1.016016318041974,-2.0,-59.010958
959,32.50243793703535,0.5182560399540812,32.570221957759095,-0.9686087060823991,-2.0,-59.010958
960,32.53632994739723,0.24216546299523606,32.60411396812097,-0.7396599800685506,-2.0,-59.010958
961,32.570221957759095,-0.07765615805072447,32.63800597848284,-0.31349767614165097,-2.0,-59.010958
962,32.60411396812097,-0.41856772716644164,32.67189798884471,0.25230909046574235,-2.0,-59.010958
963,32.638005978482845,-0.7327732372561557,32.70578999920659,0.8151518965778525,-2.0,-59.010958
964,32.67189798884471,-0.935953835544594,32.739682009568455,1.1977714500472854,-2.0,-59.010958
965,32.70578999920659,-0.9341085354961939,32.77357401993033,1.2719256777090753,-2.0,-59.010958
966,32.73968200956846,-0.6742366551839242,32.807466030292204,1.0192328534827255,-2.0,-59.010958
967,32.77357401993033,-0.18501298059451246,32.84135804065407,0.5304575651757918,-2.0,-59.010958
968,32.807466030292204,0.4207047780829076,32.875250051015946,-0.049289199059887184,-2.0,-59.010958
969,32.84135804065407,0.9840261479717684,32.909142061377814,-0.5857687773520222,-2.0,-59.010958
970,32.875250051015946,1.3565315917462426,32.94303407173969,-0.9889704084424026,-2.0,-59.010958
971,32.90914206137782,1.4463180859926712,32.97692608210156,-1.2059791681239707,-2.0,-59.010958
972,32.94303407173969,1.2367655267441147,33.01081809246343,-1.1999104151952964,-2.0,-59.010958
973,32.97692608210156,0.7793180312479617,33.044710102825306,-0.9486091826548686,-2.0,-59.010958
974,33.01081809246344,0.1730078469423935,33.07860211318718,-0.4714926132608248,-2.0,-59.010958
975,33.044710102825306,-0.4572534778748197,33.11249412354905,0.14112534655889486,-2.0,-59.010958
976,33.07860211318718,-0.9801063249354547,33.14638613391092,0.7328997977598107,-2.0,-59.010958
977,33.112494123549055,-1.278786735215683,33.1802781442728,1.1333378189659589,-2.0,-59.010958
978,33.14638613391092,-1.2777376162738459,33.214170154634665,1.2304021199163304,-2.0,-59.010958
979,33.1802781442728,-0.970396322481334,33.24806216499654,1.0174445169179187,-2.0,-59.010958
980,33.214170154634665,-0.4332095463882233,33.28195417535841,0.5850057867457564,-2.0,-59.010958
981,33.24806216499654,0.18923612099924303,33.31584618572028,0.06767870568434439,-2.0,-59.010958
982,33.281954175358415,0.7278490284345327,33.34973819608216,-0.414231520173952,-2.0,-59.010958
983,33.31584618572028,1.0430870540048296,33.383630206444025,-0.7817706036739541,-2.0,-59.010958
984,33.34973819608216,1.0658144055921783,33.4175222168059,-0.9875380733618144,-2.0,-59.010958
985,33.38363020644403,0.8107382172162956,33.451414227167774,-0.9949577439912792,-2.0,-59.010958
986,33.4175222168059,0.36225871038810337,33.48530623752964,-0.7783084562705227,-2.0,-59.010958
987,33.451414227167774,-0.15736567606022156,33.51919824789152,-0.35087602733671935,-2.0,-59.010958
988,33.48530623752965,-0.6238559444904207,33.55309025825339,0.20429213223399828,-2.0,-59.010958
989,33.51919824789152,-0.9390785834015887,33.58698226861526,0.7378648003273934,-2.0,-59.010958
990,33.55309025825339,-1.0465857987628582,33.62087427897713,1.0856971992110005,-2.0,-59.010958
991,33.58698226861526,-0.9366341456875121,33.654766289339,1.1421527599864751,-2.0,-59.010958
992,33.62087427897713,-0.6444256704000593,33.688658299700876,0.9070884296105748,-2.0,-59.010958
993,33.65476628933901,-0.24188554650912789,33.72255031006275,0.47503749048771343,-2.0,-59.010958
994,33.688658299700876,0.17914745757415929,33.75644232042462,-0.02244422571420257,-2.0,-59.010958
995,33.72255031006275,0.5315324109332079,33.79033433078649,-0.47773547999787674,-2.0,-59.010958
996,33.756442320424625,0.7568323915149917,33.82422634114837,-0.8312104572901549,-2.0,-59.010958
997,33.79033433078649,0.8348670108381903,33.858118351510235,-1.0524652756177735,-2.0,-59.010958
998,33.82422634114837,0.7720420255606514,33.89201036187211,-1.108594681007348,-2.0,-59.010958
999,33.858118351510235,0.580355536403351,33.92590237223398,-0.9578796584270226,-2.0,-59.010958
1000,33.89201036187211,0.26987936782002986,33.95979438259585,-0.5819744359334763,-2.0,-59.010958
1001,33.925902372233985,-0.13507755078831574,33.99368639295773,-0.03139801399434777,-2.0,-59.010958
1002,33.95979438259585,-0.5710833540843043,34.027578403319595,0.5596875844854967,-2.0,-59.010958
1003,33.99368639295773,-0.929618143138137,34.06147041368147,1.0146555031454727,-2.0,-59.010958
1004,34.0275784033196,-1.0868213628616692,34.095362424043344,1.1934788870155815,-2.0,-59.010958
1005,34.06147041368147,-0.9604262383859155,34.12925443440521,1.0592158667361666,-2.0,-59.010958
1006,34.095362424043344,-0.5627399774232822,34.16314644476709,0.6877511883943832,-2.0,-59.010958
1007,34.12925443440522,-0.013835951296441893,34.19703845512896,0.21713424894474107,-2.0,-59.010958
1008,34.16314644476709,0.5018223029706735,34.23093046549083,-0.22513486633338786,-2.0,-59.010958
1009,34.19703845512896,0.8186189343080483,34.264822475852704,-0.5674590983649995,-2.0,-59.010958
1010,34.23093046549083,0.8682273289173111,34.29871448621457,-0.7889916936354149,-2.0,-59.010958
1011,34.264822475852704,0.7050715917016519,34.332606496576446,-0.8819589582027221,-2.0,-59.010958
1012,34.29871448621458,0.4597655001041923,34.36649850693832,-0.8230750355775815,-2.0,-59.010958
1013,34.332606496576446,0.2503195091707767,34.40039051730019,-0.5839662118335341,-2.0,-59.010958
1014,34.36649850693832,0.113449700608704,34.43428252766206,-0.17345707591575885,-2.0,-59.010958
1015,34.400390517300195,0.0035936621761437715,34.46817453802394,0.32727126242003873,-2.0,-59.010958
1016,34.43428252766206,-0.14546063126304717,34.502066548385805,0.774820516888625,-2.0,-59.010958
1017,34.46817453802394,-0.3480836790423069,34.53595855874768,1.0227054123159214,-2.0,-59.010958
1018,34.502066548385805,-0.5395174658744223,34.53595855874768,1.0227054123159214,-1.0,-29.505479
1019,34.53595855874768,-0.6128426292053829,34.569850569109555,0.9929142169483995,-1.0,-29.505479
1020,34.569850569109555,-0.49164077694743885,34.60374257947143,0.7111490718664393,-1.0,-29.505479
1021,34.60374257947142,-0.185703142909475,34.6376345898333,0.28327707237329425,-1.0,-29.505479
1022,34.6376345898333,0.20829809169512406,34.67152660019517,-0.16662969416623338,-1.0,-29.505479
1023,34.67152660019517,0.5590049375429154,34.70541861055705,-0.5513286357162492,-1.0,-29.505479
1024,34.70541861055704,0.7678329892552392,34.739310620918914,-0.8341235753039311,-1.0,-29.505479
1025,34.739310620918914,0.8067732478661491,34.77320263128079,-1.0025767587936192,-1.0,-29.505479
1026,34.77320263128079,0.7046654153019913,34.807094641642664,-1.0349347880250015,-1.0,-29.505479
1027,34.80709464164266,0.499361261795343,34.84098665200453,-0.8950252329936529,-1.0,-29.505479
1028,34.84098665200453,0.2022654418953137,34.874878662366406,-0.5643717624284499,-1.0,-29.505479
1029,34.8748786623664,-0.1881244221314951,34.908770672728274,-0.08501151259431557,-1.0,-29.505479
1030,34.908770672728274,-0.6351777779916676,34.94266268309015,0.4277353116056446,-1.0,-29.505479
1031,34.94266268309015,-1.0296477561761612,34.97655469345202,0.8230532693521118,-1.0,-29.505479
1032,34.976554693452016,-1.2179735556192617,35.01044670381389,0.9839088161749573,-1.0,-29.505479
1033,35.01044670381389,-1.0858933746087918,35.044338714175765,0.882378497774969,-1.0,-29.505479
1034,35.044338714175765,-0.639258696808822,35.07823072453764,0.5846332657930027,-1.0,-29.505479
1035,35.07823072453763,-0.020735995792503924,35.11212273489951,0.20614016099541818,-1.0,-29.505479
1036,35.11212273489951,0.5537167155076743,35.14601474526138,-0.14764376679534494,-1.0,-29.505479
1037,35.146014745261375,0.8990329905608396,35.17990675562325,-0.41426011690070147,-1.0,-29.505479
1038,35.17990675562325,0.9409391847255912,35.213798765985125,-0.5660871148715683,-1.0,-29.505479
1039,35.213798765985125,0.726105468744455,35.247690776347,-0.5813822685201844,-1.0,-29.505479
1040,35.24769077634699,0.3657879075707748,35.28158278670887,-0.43068109314128283,-1.0,-29.505479
1041,35.28158278670887,-0.03951833382987901,35.31547479707074,-0.0984509416997999,-1.0,-29.505479
1042,35.31547479707074,-0.43818724837150114,35.34936680743262,0.3751310774738266,-1.0,-29.505479
1043,35.34936680743261,-0.8063389741427327,35.383258817794484,0.8717857704383376,-1.0,-29.505479
1044,35.383258817794484,-1.0979073722607553,35.41715082815636,1.2232026857285552,-1.0,-29.505479
1045,35.41715082815636,-1.2235601689368973,35.451042838518234,1.2835657948676134,-1.0,-29.505479
1046,35.45104283851823,-1.0905677003461305,35.4849348488801,1.003461272813669,-1.0,-29.505479
1047,35.4849348488801,-0.6764217177869688,35.518826859241976,0.4557231085400059,-1.0,-29.505479
1048,35.51882685924197,-0.07101614735797361,35.552718869603844,-0.20448726611542054,-1.0,-29.505479
1049,35.552718869603844,0.5558589937779369,35.58661087996572,-0.8164897369196108,-1.0,-29.505479
1050,35.58661087996572,1.0414189360465018,35.62050289032759,-1.2741725052681483,-1.0,-29.505479
1051,35.620502890327586,1.304334705751976,35.65439490068946,-1.5332337233682103,-1.0,-29.505479
1052,35.65439490068946,1.3529380218059905,35.688286911051335,-1.5752543922215858,-1.0,-29.505479
1053,35.688286911051335,1.2331825547578545,35.72217892141321,-1.3743715488644526,-1.0,-29.505479
1054,35.7221789214132,0.9727754385173115,35.75607093177508,-0.9075698257499984,-1.0,-29.505479
1055,35.75607093177508,0.5731008443790689,35.78996294213695,-0.20644827624066825,-1.0,-29.505479
1056,35.789962942136945,0.050471241256689656,35.82385495249882,0.5971321176685346,-1.0,-29.505479
1057,35.82385495249882,-0.5164025039327397,35.82385495249882,0.5971321176685346,0.0,0.0
1058,35.857746962860695,-0.9804080133590912,35.857746962860695,1.285340041297697,0.0,0.0
1059,35.89163897322256,-1.1790048787909808,35.89163897322256,1.6389441203175334,0.0,0.0
1060,35.92553098358444,-1.0212587298096107,35.92553098358444,1.5433277715922127,0.0,0.0
1061,35.95942299394631,-0.5536079167268542,35.95942299394631,1.043959721243882,0.0,0.0
1062,35.99331500430818,0.045916579176716016,35.99331500430818,0.3145292342529192,0.0,0.0
1063,36.027207014670054,0.5512273346183358,36.027207014670054,-0.43465034657792345,0.0,0.0
1064,36.06109902503193,0.8015485350514966,36.06109902503193,-1.0410056926491658,0.0,0.0
1065,36.0949910353938,0.7724850200375136,36.0949910353938,-1.4162173056999436,0.0,0.0
1066,36.12888304575567,0.5588531512907423,36.12888304575567,-1.5187517023745873,0.0,0.0
1067,36.16277505611754,0.2856419599281383,36.16277505611754,-1.3207879462509895,0.0,0.0
1068,36.196667066479414,0.016913541190929436,36.196667066479414,-0.8148763123727861,0.0,0.0
1069,36.23055907684129,-0.2671284598573432,36.23055907684129,-0.05897261382208202,0.0,0.0
1070,36.264451087203156,-0.610237259597355,36.264451087203156,0.7888789315148885,0.0,0.0
1071,36.29834309756503,-0.990923931336775,36.29834309756503,1.4972197142805277,0.0,0.0
1072,36.332235107926905,-1.2845847580896166,36.332235107926905,1.8513163233319523,0.0,0.0
1073,36.36612711828877,-1.3200586222081776,36.36612711828877,1.7516346583791624,0.0,0.0
1074,36.40001912865065,-0.9968454400005554,36.40001912865065,1.2529663255122918,0.0,0.0
1075,36.433911139012515,-0.37362050898123145,36.433911139012515,0.5209475224076114,0.0,0.0
1076,36.46780314937439,0.3453790350517247,36.46780314937439,-0.2555955860364085,0.0,0.0
1077,36.501695159736265,0.9204386595303518,36.501695159736265,-0.9317965978406936,0.0,0.0
1078,36.53558717009813,1.2019016337553108,36.53558717009813,-1.4163725054111374,0.0,0.0
1079,36.56947918046001,1.184056955830446,36.56947918046001,-1.6406451113251979,0.0,0.0
1080,36.60337119082188,0.9640802490354392,36.60337119082188,-1.537712026304804,0.0,0.0
1081,36.63726320118375,0.6545490254313827,36.63726320118375,-1.0687402836147768,0.0,0.0
1082,36.671155211545624,0.31985692449334446,36.671155211545624,-0.2836361342144267,0.0,0.0
1083,36.7050472219075,-0.02579220359191497,36.7050472219075,0.6399305897256836,0.0,0.0
1084,36.73893923226937,-0.372999900645801,36.73893923226937,1.4315188733926516,0.0,0.0
1085,36.77283124263124,-0.672192898634105,36.77283124263124,1.835836332102397,0.0,0.0
1086,36.80672325299311,-0.8318085266996493,36.80672325299311,1.7314463410274603,0.0,0.0
1087,36.840615263354984,-0.7644329369847069,36.840615263354984,1.1825695133987773,0.0,0.0
1088,36.87450727371686,-0.44584689999331883,36.87450727371686,0.3917864497003063,0.0,0.0
1089,36.908399284078726,0.05684803017362644,36.908399284078726,-0.40882843935180785,0.0,0.0
1090,36.9422912944406,0.6052964473144782,36.9422912944406,-1.0524731188947702,0.0,0.0
1091,36.976183304802476,1.0409697398039703,36.976183304802476,-1.463462846404761,0.0,0.0
1092,37.01007531516434,1.2368177314804452,37.01007531516434,-1.618721833337986,0.0,0.0
1093,37.04396732552622,1.129719283129812,37.04396732552622,-1.498638902592554,0.0,0.0
1094,37.07785933588809,0.7310679018236482,37.07785933588809,-1.0816997371375827,0.0,0.0
1095,37.11175134624996,0.12234029477376254,37.11175134624996,-0.3910319050269516,0.0,0.0
1096,37.145643356611835,-0.5582804761385276,37.145643356611835,0.4526472598810667,0.0,0.0
1097,37.1795353669737,-1.1397829501139747,37.1795353669737,1.2319371811027178,0.0,0.0
1098,37.21342737733558,-1.459579979981506,37.21342737733558,1.7086350375013337,0.0,0.0
1099,37.24731938769745,-1.4202805684853144,37.24731938769745,1.7335648587309742,0.0,0.0
1100,37.28121139805932,-1.038809962163944,37.28121139805932,1.316994119066261,0.0,0.0
1101,37.315103408421194,-0.4527170432944201,37.315103408421194,0.6126743692473479,0.0,0.0
1102,37.34899541878307,0.13347569260103503,37.34899541878307,-0.16810395260351257,0.0,0.0
1103,37.38288742914494,0.5390372539233806,37.38288742914494,-0.8487081835842913,0.0,0.0
1104,37.41677943950681,0.6827552837224639,37.41677943950681,-1.3273382625053638,0.0,0.0
1105,37.45067144986868,0.5986048991639814,37.45067144986868,-1.55637125168978,0.0,0.0
1106,37.484563460230554,0.3858606679415553,37.484563460230554,-1.5023731353574135,0.0,0.0
1107,37.51845547059243,0.13123290058749548,37.51845547059243,-1.1386122902648135,0.0,0.0
1108,37.552347480954296,-0.14226740884776023,37.552347480954296,-0.4851606339802863,0.0,0.0
1109,37.58623949131617,-0.4642775662705739,37.58623949131617,0.34061319716311894,0.0,0.0
1110,37.620131501678046,-0.8527064359179043,37.620131501678046,1.1219833220272022,0.0,0.0
1111,37.65402351203991,-1.247135670857051,37.65402351203991,1.616037170457764,0.0,0.0
1112,37.68791552240179,-1.4994001827871966,37.68791552240179,1.6664086387982362,0.0,0.0
1113,37.72180753276366,-1.442099636163874,37.72180753276366,1.2804998370667542,0.0,0.0
1114,37.75569954312553,-0.9942082765305518,37.75569954312553,0.6165395777971014,0.0,0.0
1115,37.789591553487405,-0.22629523003091032,37.789591553487405,-0.10884098452987953,0.0,0.0
1116,37.82348356384927,0.6691103002028257,37.82348356384927,-0.7253379480437566,0.0,0.0
1117,37.85737557421115,1.4848575849359607,38.06072763638238,0.8691829130278871,-6.0,-177.032874
1118,37.89126758457302,2.1031043822035107,38.094619646744256,1.508304138734429,-6.0,-177.032874
1119,37.92515959493489,2.5150832794297324,38.128511657106124,1.7609154067618649,-6.0,-177.032874
1120,37.959051605296764,2.7453633170956815,38.162403667468,1.5530464941151803,-6.0,-177.032874
1121,37.99294361565864,2.753554043967539,38.19629567782987,0.9792184671211701,-6.0,-177.032874
1122,38.02683562602051,2.4143746123025966,38.23018768819174,0.23830488468314706,-6.0,-177.032874
1123,38.06072763638238,1.616229508606319,38.264079698553616,-0.47133803823540954,-6.0,-177.032874
1124,38.09461964674425,0.40941065626876544,38.29797170891548,-1.0217883452258583,-6.0,-177.032874
1125,38.128511657106124,-0.9278829833078899,38.33186371927736,-1.3538289652669033,-6.0,-177.032874
1126,38.162403667468,-1.9863750696687268,38.162403667468,1.5530464941151803,0.0,0.0
1127,38.196295677829866,-2.4355851287920953,38.3996477400011,-1.2141415901440815,-6.0,-177.032874
1128,38.23018768819174,-2.2022346675962807,38.433539750362975,-0.6875137794313368,-6.0,-177.032874
1129,38.264079698553616,-1.496100215424202,38.46743176072485,0.07474598412536858,-6.0,-177.032874
1130,38.29797170891548,-0.6769890615906695,38.50132377108672,0.8802050771324774,-6.0,-177.032874
1131,38.33186371927736,-0.06456678208203291,38.53521578144859,1.4701287578953728,-6.0,-177.032874
1132,38.36575572963923,0.1848370084264017,38.56910779181047,1.636841289167949,-6.0,-177.032874
1133,38.3996477400011,0.07870127625381021,38.602999802172334,1.3296074966677733,-6.0,-177.032874
1134,38.433539750362975,-0.2928541885132533,38.63689181253421,0.6745447757604738,-6.0,-177.032874
1135,38.46743176072484,-0.8306071897371433,38.67078382289608,-0.10332157333387094,-6.0,-177.032874
1136,38.50132377108672,-1.434080674650049,38.70467583325795,-0.79698579754303,-6.0,-177.032874
1137,38.53521578144859,-1.9610373242581245,38.738567843619826,-1.2921200053228123,-6.0,-177.032874
1138,38.56910779181046,-2.2090167301242047,38.772459853981694,-1.559091688845652,-6.0,-177.032874
1139,38.602999802172334,-1.975130090959762,38.80635186434357,-1.5910064688124468,-6.0,-177.032874
1140,38.63689181253421,-1.1780954958351113,38.84024387470544,-1.3577299197249824,-6.0,-177.032874
1141,38.67078382289608,0.04495311231026654,38.6368918125342,0.6745447757606111,1.0,29.505479
1142,38.70467583325795,1.358115004575998,38.67078382289608,-0.10332157333387094,1.0,29.505479
1143,38.73856784361982,2.374441050640874,38.704675833257944,-0.7969857975428846,1.0,29.505479
1144,38.772459853981694,2.8412423003302933,38.73856784361982,-1.2921200053227564,1.0,29.505479
1145,38.80635186434357,2.737888854906952,39.0097039265148,1.945068609694205,-6.0,-177.032874
1146,38.840243874705436,2.2280605400372506,39.04359593687667,1.776441208281844,-6.0,-177.032874
1147,38.87413588506731,1.520217697681675,38.840243874705436,-1.3577299197250938,1.0,29.505479
1148,38.908027895429186,0.75078645502101,38.87413588506731,-0.8260898385541928,1.0,29.505479
1149,38.94191990579105,-0.030864361066760843,38.90802789542918,-0.03199767112997309,1.0,29.505479
1150,38.97581191615293,-0.7879012033111349,38.94191990579105,0.8643597835415567,1.0,29.505479
1151,39.0097039265148,-1.4149866157045814,38.97581191615293,1.6051337660606213,1.0,29.505479
1152,39.04359593687667,-1.7353731273241517,39.009703926514796,1.9450686096941336,1.0,29.505479
1153,39.077487947238545,-1.5945834692197611,39.04359593687667,1.776441208281844,1.0,29.505479
1154,39.11137995760041,-0.98347364818382,39.07748794723854,1.1818297466180865,1.0,29.505479
1155,39.14527196796229,-0.08902478936918203,39.11137995760041,0.3793576320415776,1.0,29.505479
1156,39.17916397832416,0.7776224371126178,39.14527196796229,-0.3965623523383805,1.0,29.505479
1157,39.21305598868603,1.3317823075439619,39.179163978324155,-0.994026753952584,1.0,29.505479
1158,39.246947999047904,1.4437384654876755,39.45030006121914,1.7892907171076324,-6.0,-177.032874
1159,39.28084000940978,1.1679608618108843,39.48419207158101,1.7694365372378011,-6.0,-177.032874
1160,39.31473201977165,0.6711598660014997,39.51808408194288,1.2916367351259972,-6.0,-177.032874
1161,39.34862403013352,0.12277659683893721,39.551976092304756,0.5414599475640627,-6.0,-177.032874
1162,39.38251604049539,-0.3758634285627357,39.58586810266662,-0.24205867992090277,-6.0,-177.032874
1163,39.416408050857264,-0.7889473391251816,39.6197601130285,-0.8824482953958869,-6.0,-177.032874
1164,39.45030006121914,-1.0953436879384288,39.65365212339037,-1.3122958289588882,-6.0,-177.032874
1165,39.484192071581006,-1.2472923635694055,39.68754413375224,-1.5332905003645236,-6.0,-177.032874
1166,39.51808408194288,-1.1803118027765915,39.484192071581006,1.7694365372379013,1.0,29.505479
1167,39.551976092304756,-0.8685923764349741,39.51808408194288,1.2916367351259972,1.0,29.505479
1168,39.58586810266662,-0.37791417191185317,39.55197609230475,0.54145994756422,1.0,29.505479
1169,39.6197601130285,0.13734573175959097,39.58586810266662,-0.24205867992090277,1.0,29.505479
1170,39.65365212339037,0.5062321508783918,39.6197601130285,-0.8824482953958869,1.0,29.505479
1171,39.68754413375224,0.6360360876298051,39.653652123390366,-1.312295828958798,1.0,29.505479
1172,39.721436144114115,0.5569046193201246,39.92478820628535,1.7073331923389228,-6.0,-177.032874
1173,39.75532815447598,0.379922555816521,39.95868021664722,1.418705179884831,-6.0,-177.032874
1174,39.78922016483786,0.20505957283944204,39.75532815447598,-1.2956961231761226,1.0,29.505479
1175,39.82311217519973,0.05761953669193713,39.78922016483786,-0.7567117501263633,1.0,29.505479
1176,39.8570041855616,-0.09645395511751623,39.823112175199725,0.02537682628522775,1.0,29.505479
1177,39.890896195923474,-0.2780166800335949,39.8570041855616,0.8676086354565157,1.0,29.505479
1178,39.92478820628535,-0.4367742270909269,39.890896195923474,1.5030698271867253,1.0,29.505479
1179,39.95868021664722,-0.46559300787105956,39.92478820628534,1.70733319233888,1.0,29.505479
1180,39.99257222700909,-0.2805275119668467,40.195924289180326,-1.1782106358977271,-6.0,-177.032874
1181,40.02646423737096,0.09733408869054076,40.22981629954219,-0.687418410735818,-6.0,-177.032874
1182,40.060356247732834,0.5250180448727835,40.26370830990407,0.06173377935887536,-6.0,-177.032874
1183,40.09424825809471,0.8039926587521216,40.29760032026594,0.9290415536960931,-6.0,-177.032874
1184,40.128140268456576,0.7901065914050079,40.33149233062781,1.6642225162115816,-6.0,-177.032874
1185,40.16203227881845,0.4795577679593201,40.365384340989685,2.0145253391205955,-6.0,-177.032874
1186,40.195924289180326,0.01692202691381324,40.39927635135156,1.8574282489887515,-6.0,-177.032874
1187,40.22981629954219,-0.3833481354403238,40.43316836171343,1.2640385338886937,-6.0,-177.032874
1188,40.26370830990407,-0.5571944213644449,40.4670603720753,0.4490498333017003,-6.0,-177.032874
1189,40.29760032026594,-0.47938722628357655,40.50095238243718,-0.35242559511520816,-6.0,-177.032874
1190,40.33149233062781,-0.2649382160323469,40.534844392799044,-0.9909667653714527,-6.0,-177.032874
1191,40.365384340989685,-0.08460037908764516,40.56873640316092,-1.4236264954902358,-6.0,-177.032874
1192,40.39927635135155,-0.05149310187946181,40.60262841352279,-1.6535576440050848,-6.0,-177.032874
1193,40.43316836171343,-0.15325380729224264,40.63652042388466,-1.6567241068068115,-6.0,-177.032874
1194,40.4670603720753,-0.27124757056054993,40.4670603720753,0.4490498333017003,0.0,0.0
1195,40.50095238243717,-0.2682819097684783,40.50095238243717,-0.35242559511507426,0.0,0.0
1196,40.534844392799044,-0.08215553904383378,40.534844392799044,-0.9909667653714527,0.0,0.0
1197,40.56873640316092,0.23569482330794864,40.56873640316092,-1.4236264954902358,0.0,0.0
1198,40.60262841352279,0.5551996440329138,40.80598047569402,1.619286091782254,-6.0,-177.032874
1199,40.63652042388466,0.7452268468602129,40.839872486055896,1.7670521810308668,-6.0,-177.032874
1200,40.670412434246536,0.7385285474205066,40.87376449641777,1.410276780541991,-6.0,-177.032874
1201,40.704304444608404,0.5460758261895905,40.90765650677964,0.7110676544867301,-6.0,-177.032874
1202,40.73819645497028,0.22633341503679916,40.94154851714151,-0.08085673615764935,-6.0,-177.032874
1203,40.772088465332146,-0.1531083699995443,40.97544052750338,-0.7594122667468539,-6.0,-177.032874
1204,40.80598047569402,-0.5302757752317001,41.009332537865255,-1.2323547898832028,-6.0,-177.032874
1205,40.839872486055896,-0.8408907377606339,41.04322454822713,-1.495372351247216,-6.0,-177.032874
1206,40.87376449641776,-1.0127913570868832,41.077116558589,-1.5521861346118995,-6.0,-177.032874
1207,40.90765650677964,-0.9832939539861347,41.11100856895087,-1.3616761291974606,-6.0,-177.032874
1208,40.94154851714151,-0.735064750419297,41.14490057931275,-0.8649366871953953,-6.0,-177.032874
1209,40.97544052750338,-0.3235691787726287,41.416036662207716,-0.18223609750402284,-13.0,-383.571227
1210,41.009332537865255,0.13128259321621313,41.44992867256959,-0.7702391818408949,-13.0,-383.571227
1211,41.04322454822712,0.4927187782466607,41.24657661039836,1.6719758384563008,-6.0,-177.032874
1212,41.077116558589,0.6668639264733537,41.28046862076023,2.08202638560307,-6.0,-177.032874
1213,41.11100856895087,0.6367961179377515,41.314360631122106,1.9611918884565616,-6.0,-177.032874
1214,41.14490057931274,0.45280927786566777,41.38214465184584,0.5872559049200194,-7.0,-206.538353
1215,41.178792589674615,0.1935566124541369,41.85663279691206,0.08574074881744931,-20.0,-590.10958
1216,41.21268460003649,-0.07017437051694429,41.890524807273934,-0.6561806513339778,-20.0,-590.10958
1217,41.24657661039836,-0.287002959985112,41.9244168176358,-1.1985050110127136,-20.0,-590.10958
1218,41.28046862076023,-0.41457186674299273,41.72106475546457,1.528296860027874,-13.0,-383.571227
1219,41.314360631122106,-0.4095219024141626,41.75495676582644,1.8017204370902635,-13.0,-383.571227
1220,41.348252641483974,-0.23865456397628457,41.585496714017076,-1.2636266987744162,-7.0,-206.538353
1221,41.38214465184585,0.09055679524191312,42.26333692125452,1.3133193008598905,-26.0,-767.142454
1222,41.416036662207716,0.5070446214327574,42.29722893161639,0.5968290062470465,-26.0,-767.142454
1223,41.44992867256959,0.8901143805081451,42.33112094197826,-0.157784820285485,-26.0,-767.142454
1224,41.483820682931466,1.1214723478501163,42.36501295234014,-0.7880059394769756,-26.0,-767.142454
1225,41.51771269329333,1.1415240693196387,41.111008568950865,-1.3616761291975006,12.0,354.065748
1226,41.55160470365521,0.9699177591009132,41.14490057931274,-0.8649366871955613,12.0,354.065748
1227,41.58549671401708,0.6793799531310825,41.178792589674615,-0.07298262831479826,12.0,354.065748
1228,41.61938872437895,0.346166188271554,41.21268460003648,0.8628960059432542,12.0,354.065748
1229,41.653280734740825,0.011695334342477584,41.28046862076023,2.08202638560307,11.0,324.560269
1230,41.68717274510269,-0.3220399528891172,41.3143606311221,1.9611918884565869,11.0,324.560269
1231,41.72106475546457,-0.6632320145204872,41.348252641483974,1.3858058951311074,11.0,324.560269
1232,41.75495676582644,-0.990116367242591,41.38214465184585,0.587255904919852,11.0,324.560269
1233,41.78884877618831,-1.2337952803854768,41.416036662207716,-0.18223609750402284,11.0,324.560269
1234,41.822740786550185,-1.3049715319120094,41.89052480727393,-0.6561806513338642,-2.0,-59.010958
1235,41.85663279691206,-1.1529964006477345,42.16166089016891,1.239985771492184,-9.0,-265.549311
1236,41.89052480727393,-0.8156779697037734,40.16203227881845,-1.394680916438221,51.0,1504.7794290000002
1237,41.9244168176358,-0.4162695412174536,39.99257222700909,0.7672237131361875,57.0,1681.8123030000002
1238,41.958308827997676,-0.0990659778855501,40.026464237370966,-0.006594086470648709,57.0,1681.8123030000002
1239,41.992200838359544,0.05498763785370822,40.060356247732834,-0.6817014253099735,57.0,1681.8123030000002
1240,42.02609284872142,0.06970248973529067,40.09424825809471,-1.1433167988627582,57.0,1681.8123030000002
1241,42.059984859083286,0.039756302534665965,40.128140268456576,-1.3766080627706714,57.0,1681.8123030000002
1242,42.09387686944516,0.04790947045383411,40.16203227881845,-1.394680916438221,57.0,1681.8123030000002
1243,42.127768879807036,0.0974029852044086,40.195924289180326,-1.1782106358977271,57.0,1681.8123030000002
1244,42.1616608901689,0.11213508329352881,40.22981629954219,-0.687418410735818,57.0,1681.8123030000002
1245,42.19555290053078,0.006958295457714562,40.50095238243717,-0.35242559511507426,50.0,1475.27395
1246,42.22944491089265,-0.2238632743515354,40.534844392799044,-0.9909667653714527,50.0,1475.27395
1247,42.26333692125452,-0.4716358434822066,40.56873640316091,-1.423626495490145,50.0,1475.27395
1248,42.297228931616395,-0.5678329223433018,40.60262841352279,-1.6535576440050848,50.0,1475.27395
1249,42.33112094197826,-0.39463476018330873,40.636520423884654,-1.6567241068068108,50.0,1475.27395
1250,42.36501295234014,0.030254996364362997,40.67041243424653,-1.3696119985086261,50.0,1475.27395
1251,42.39890496270201,0.5581931342671346,40.4670603720753,0.4490498333017003,57.0,1681.8123030000002
1252,42.43279697306388,0.9974795047825601,40.50095238243717,-0.35242559511507426,57.0,1681.8123030000002
1253,42.466688983425755,1.2175493165659697,40.534844392799044,-0.9909667653714527,57.0,1681.8123030000002
